# CI_SBPX -117.23482669 34.23234020
# 
# Depth (m)   Vp (m/s)        Vs(m/s)      Density(kg/m3)
   0.0      3982.0341797    2310.8964844    2719.9987793  
  20.0      3979.8090820    2309.4362793    2719.9987793  
  40.0      3977.5844727    2307.9760742    2719.9987793  
  60.0      3975.3593750    2306.5158691    2719.9987793  
  80.0      3973.1347656    2305.0556641    2719.9987793  
 100.0      3970.9096680    2303.5952148    2719.9987793  
 120.0      3968.6850586    2302.1350098    2719.9987793  
 140.0      3966.4599609    2300.6748047    2719.9987793  
 160.0      3964.2353516    2299.2145996    2719.9987793  
 180.0      3962.0102539    2297.7543945    2719.9987793  
 200.0      3959.7856445    2296.2939453    2719.9987793  
 220.0      3957.5605469    2294.8337402    2719.9987793  
 240.0      3955.3359375    2293.3735352    2719.9987793  
 260.0      3953.1108398    2291.9130859    2719.9987793  
 280.0      3950.8862305    2290.4528809    2719.9987793  
 300.0      3948.6611328    2288.9926758    2719.9987793  
 320.0      3946.4365234    2287.5324707    2719.9987793  
 340.0      3944.2114258    2286.0722656    2719.9987793  
 360.0      3941.9868164    2284.6118164    2719.9987793  
 380.0      3939.7617188    2283.1516113    2719.9987793  
 400.0      3937.5371094    2281.6914062    2719.9987793  
 420.0      3935.3120117    2280.2312012    2719.9987793  
 440.0      3933.0874023    2278.7709961    2719.9987793  
 460.0      3930.8623047    2277.3105469    2719.9987793  
 480.0      3928.6376953    2275.8503418    2719.9987793  
 500.0      3926.4125977    2274.3901367    2719.9987793  
 520.0      3931.6103516    2277.9272461    2719.9987793  
 540.0      3936.8078613    2281.4643555    2719.9987793  
 560.0      3942.0053711    2285.0014648    2719.9987793  
 580.0      3947.2031250    2288.5385742    2719.9987793  
 600.0      3952.4008789    2292.0759277    2719.9987793  
 620.0      3957.5983887    2295.6130371    2719.9987793  
 640.0      3962.7958984    2299.1501465    2719.9987793  
 660.0      3967.9936523    2302.6872559    2719.9987793  
 680.0      3973.1911621    2306.2243652    2719.9987793  
 700.0      3978.3886719    2309.7614746    2719.9987793  
 720.0      3983.5864258    2313.2985840    2719.9987793  
 740.0      3988.7841797    2316.8359375    2719.9987793  
 760.0      3993.9814453    2320.3730469    2719.9987793  
 780.0      3999.1791992    2323.9101562    2719.9987793  
 800.0      4004.3769531    2327.4472656    2719.9987793  
 820.0      4009.5744629    2330.9843750    2719.9987793  
 840.0      4014.7719727    2334.5214844    2719.9987793  
 860.0      4019.9697266    2338.0585938    2719.9987793  
 880.0      4025.1672363    2341.5957031    2719.9987793  
 900.0      4030.3647461    2345.1328125    2719.9987793  
 920.0      4035.5625000    2348.6699219    2719.9987793  
 940.0      4040.7602539    2352.2072754    2719.9987793  
 960.0      4045.9577637    2355.7443848    2719.9987793  
 980.0      4051.1552734    2359.2814941    2719.9987793  
1000.0      4056.3789062    2362.8425293    2720.0029297  
1020.0      4063.6127930    2368.1611328    2720.3408203  
1040.0      4070.8461914    2373.4799805    2720.6784668  
1060.0      4078.0795898    2378.7985840    2721.0163574  
1080.0      4085.3129883    2384.1176758    2721.3542480  
1100.0      4092.5466309    2389.4360352    2721.6921387  
1120.0      4099.7802734    2394.7548828    2722.0300293  
1140.0      4107.0136719    2400.0734863    2722.3679199  
1160.0      4114.2470703    2405.3923340    2722.7058105  
1180.0      4121.4804688    2410.7111816    2723.0434570  
1200.0      4128.7138672    2416.0300293    2723.3813477  
1220.0      4135.9467773    2421.3486328    2723.7192383  
1240.0      4143.1806641    2426.6674805    2724.0571289  
1260.0      4150.4135742    2431.9863281    2724.3950195  
1280.0      4157.6474609    2437.3046875    2724.7329102  
1300.0      4164.8808594    2442.6235352    2725.0708008  
1320.0      4172.1147461    2447.9423828    2725.4086914  
1340.0      4179.3476562    2453.2609863    2725.7465820  
1360.0      4186.5815430    2458.5798340    2726.0844727  
1380.0      4193.8149414    2463.8986816    2726.4223633  
1400.0      4201.0483398    2469.2170410    2726.7600098  
1420.0      4208.2817383    2474.5358887    2727.0979004  
1440.0      4215.5156250    2479.8549805    2727.4357910  
1460.0      4222.7485352    2485.1735840    2727.7736816  
1480.0      4229.9819336    2490.4921875    2728.1115723  
1500.0      4237.2158203    2495.8110352    2728.4494629  
1520.0      4245.6411133    2501.7883301    2728.7871094  
1540.0      4254.0673828    2507.7656250    2729.1250000  
1560.0      4262.4931641    2513.7431641    2729.4628906  
1580.0      4270.9194336    2519.7202148    2729.8007812  
1600.0      4279.3447266    2525.6975098    2730.1386719  
1620.0      4287.7709961    2531.6748047    2730.4765625  
1640.0      4296.1967773    2537.6523438    2730.8144531  
1660.0      4304.6230469    2543.6293945    2731.1523438  
1680.0      4313.0488281    2549.6064453    2731.4902344  
1700.0      4321.4746094    2555.5842285    2731.8281250  
1720.0      4329.9008789    2561.5615234    2732.1660156  
1740.0      4338.3271484    2567.5390625    2732.5039062  
1760.0      4346.7524414    2573.5161133    2732.8415527  
1780.0      4355.1782227    2579.4934082    2733.1794434  
1800.0      4363.6044922    2585.4709473    2733.5173340  
1820.0      4372.0302734    2591.4479980    2733.8552246  
1840.0      4380.4560547    2597.4250488    2734.1931152  
1860.0      4388.8818359    2603.4025879    2734.5310059  
1880.0      4397.3085938    2609.3798828    2734.8688965  
1900.0      4405.7333984    2615.3571777    2735.2065430  
1920.0      4414.1596680    2621.3344727    2735.5444336  
1940.0      4422.5859375    2627.3117676    2735.8823242  
1960.0      4431.0117188    2633.2890625    2736.2202148  
1980.0      4439.4375000    2639.2663574    2736.5581055  
2000.0      4447.8637695    2645.2436523    2736.8959961  
2020.0      4456.8051758    2651.5700684    2737.2338867  
2040.0      4465.7460938    2657.8955078    2737.5717773  
2060.0      4474.6875000    2664.2214355    2737.9096680  
2080.0      4483.6289062    2670.5476074    2738.2475586  
2100.0      4492.5698242    2676.8732910    2738.5854492  
2120.0      4501.5112305    2683.1997070    2738.9230957  
2140.0      4510.4521484    2689.5253906    2739.2609863  
2160.0      4519.3940430    2695.8513184    2739.5988770  
2180.0      4528.3349609    2702.1772461    2739.9367676  
2200.0      4537.2773438    2708.5031738    2740.2746582  
2220.0      4546.2182617    2714.8295898    2740.6125488  
2240.0      4555.1596680    2721.1550293    2740.9504395  
2260.0      4564.1005859    2727.4809570    2741.2883301  
2280.0      4573.0419922    2733.8071289    2741.6262207  
2300.0      4581.9833984    2740.1328125    2741.9638672  
2320.0      4590.9243164    2746.4592285    2742.3017578  
2340.0      4599.8657227    2752.7849121    2742.6396484  
2360.0      4608.8076172    2759.1113281    2742.9775391  
2380.0      4617.7480469    2765.4367676    2743.3154297  
2400.0      4626.6899414    2771.7626953    2743.6533203  
2420.0      4635.6313477    2778.0888672    2743.9912109  
2440.0      4644.5727539    2784.4147949    2744.3291016  
2460.0      4653.5136719    2790.7407227    2744.6669922  
2480.0      4662.4555664    2797.0666504    2745.0048828  
2500.0      4671.3964844    2803.3925781    2745.3427734  
2520.0      4679.4033203    2808.6000977    2745.6804199  
2540.0      4687.4101562    2813.8076172    2746.0183105  
2560.0      4695.4174805    2819.0151367    2746.3562012  
2580.0      4703.4243164    2824.2229004    2746.6940918  
2600.0      4711.4311523    2829.4304199    2747.0319824  
2620.0      4719.4379883    2834.6374512    2747.3696289  
2640.0      4727.4448242    2839.8452148    2747.7075195  
2660.0      4735.4526367    2845.0527344    2748.0456543  
2680.0      4743.4594727    2850.2602539    2748.3835449  
2700.0      4751.4663086    2855.4680176    2748.7211914  
2720.0      4759.4731445    2860.6755371    2749.0590820  
2740.0      4767.4799805    2865.8830566    2749.3969727  
2760.0      4775.4873047    2871.0903320    2749.7348633  
2780.0      4783.4941406    2876.2978516    2750.0727539  
2800.0      4791.5009766    2881.5053711    2750.4106445  
2820.0      4799.5083008    2886.7128906    2750.7485352  
2840.0      4807.5146484    2891.9206543    2751.0861816  
2860.0      4815.5224609    2897.1281738    2751.4243164  
2880.0      4823.5292969    2902.3354492    2751.7622070  
2900.0      4831.5361328    2907.5432129    2752.1000977  
2920.0      4839.5429688    2912.7504883    2752.4377441  
2940.0      4847.5498047    2917.9580078    2752.7756348  
2960.0      4855.5571289    2923.1657715    2753.1135254  
2980.0      4863.5639648    2928.3732910    2753.4514160  
3000.0      4871.5708008    2933.5808105    2753.7893066  
3020.0      4879.6152344    2938.7646484    2754.1269531  
3040.0      4887.6596680    2943.9482422    2754.4648438  
3060.0      4895.7050781    2949.1320801    2754.8027344  
3080.0      4903.7495117    2954.3161621    2755.1406250  
3100.0      4911.7939453    2959.5000000    2755.4785156  
3120.0      4919.8388672    2964.6840820    2755.8164062  
3140.0      4927.8837891    2969.8676758    2756.1542969  
3160.0      4935.9287109    2975.0512695    2756.4921875  
3180.0      4943.9731445    2980.2353516    2756.8300781  
3200.0      4952.0175781    2985.4191895    2757.1679688  
3220.0      4960.0625000    2990.6030273    2757.5058594  
3240.0      4968.1069336    2995.7871094    2757.8435059  
3260.0      4976.1513672    3000.9707031    2758.1813965  
3280.0      4984.1967773    3006.1547852    2758.5192871  
3300.0      4992.2412109    3011.3383789    2758.8571777  
3320.0      5000.2856445    3016.5222168    2759.1950684  
3340.0      5008.3305664    3021.7062988    2759.5329590  
3360.0      5016.3750000    3026.8901367    2759.8706055  
3380.0      5024.4199219    3032.0739746    2760.2087402  
3400.0      5032.4648438    3037.2580566    2760.5463867  
3420.0      5040.5092773    3042.4414062    2760.8842773  
3440.0      5048.5537109    3047.6252441    2761.2221680  
3460.0      5056.5986328    3052.8093262    2761.5600586  
3480.0      5064.6430664    3057.9931641    2761.8979492  
3500.0      5072.6884766    3063.1772461    2762.2358398  
3520.0      5081.0024414    3068.4201660    2762.5737305  
3540.0      5089.3164062    3073.6630859    2762.9116211  
3560.0      5097.6303711    3078.9060059    2763.2495117  
3580.0      5105.9443359    3084.1489258    2763.5874023  
3600.0      5114.2587891    3089.3918457    2763.9252930  
3620.0      5122.5727539    3094.6350098    2764.2631836  
3640.0      5130.8867188    3099.8779297    2764.6008301  
3660.0      5139.2006836    3105.1210938    2764.9387207  
3680.0      5147.5146484    3110.3640137    2765.2766113  
3700.0      5155.8295898    3115.6066895    2765.6145020  
3720.0      5164.1435547    3120.8498535    2765.9523926  
3740.0      5172.4575195    3126.0927734    2766.2902832  
3760.0      5180.7714844    3131.3359375    2766.6279297  
3780.0      5189.0854492    3136.5788574    2766.9658203  
3800.0      5197.3994141    3141.8217773    2767.3037109  
3820.0      5205.7138672    3147.0646973    2767.6416016  
3840.0      5214.0283203    3152.3078613    2767.9794922  
3860.0      5222.3417969    3157.5505371    2768.3173828  
3880.0      5230.6562500    3162.7937012    2768.6552734  
3900.0      5238.9702148    3168.0363770    2768.9931641  
3920.0      5247.2841797    3173.2795410    2769.3310547  
3940.0      5255.5981445    3178.5227051    2769.6689453  
3960.0      5263.9125977    3183.7653809    2770.0068359  
3980.0      5272.2265625    3189.0085449    2770.3447266  
4000.0      5280.5405273    3194.2514648    2770.6823730  
4020.0      5289.3872070    3199.9990234    2771.0205078  
4040.0      5298.2333984    3205.7468262    2771.3581543  
4060.0      5307.0795898    3211.4943848    2771.6960449  
4080.0      5315.9257812    3217.2416992    2772.0339355  
4100.0      5324.7714844    3222.9895020    2772.3718262  
4120.0      5333.6176758    3228.7370605    2772.7094727  
4140.0      5342.4638672    3234.4846191    2773.0473633  
4160.0      5351.3100586    3240.2319336    2773.3852539  
4180.0      5360.1562500    3245.9794922    2773.7231445  
4200.0      5369.0029297    3251.7272949    2774.0610352  
4220.0      5377.8486328    3257.4748535    2774.3989258  
4240.0      5386.6948242    3263.2221680    2774.7368164  
4260.0      5395.5415039    3268.9699707    2775.0747070  
4280.0      5404.3876953    3274.7175293    2775.4125977  
4300.0      5413.2338867    3280.4650879    2775.7504883  
4320.0      5422.0800781    3286.2128906    2776.0883789  
4340.0      5430.9257812    3291.9604492    2776.4262695  
4360.0      5439.7719727    3297.7077637    2776.7639160  
4380.0      5448.6181641    3303.4553223    2777.1018066  
4400.0      5457.4643555    3309.2028809    2777.4396973  
4420.0      5466.3110352    3314.9501953    2777.7775879  
4440.0      5475.1572266    3320.6979980    2778.1154785  
4460.0      5484.0034180    3326.4455566    2778.4533691  
4480.0      5492.8496094    3332.1931152    2778.7912598  
4500.0      5501.6958008    3337.9406738    2779.1291504  
4520.0      5510.9921875    3344.3823242    2779.4667969  
4540.0      5520.2885742    3350.8242188    2779.8046875  
4560.0      5529.5844727    3357.2658691    2780.1425781  
4580.0      5538.8808594    3363.7077637    2780.4804688  
4600.0      5548.1772461    3370.1494141    2780.8183594  
4620.0      5557.4736328    3376.5908203    2781.1562500  
4640.0      5566.7705078    3383.0324707    2781.4941406  
4660.0      5576.0664062    3389.4743652    2781.8320312  
4680.0      5585.3627930    3395.9160156    2782.1699219  
4700.0      5594.6596680    3402.3576660    2782.5078125  
4720.0      5603.9560547    3408.7993164    2782.8457031  
4740.0      5613.2519531    3415.2412109    2783.1833496  
4760.0      5622.5488281    3421.6828613    2783.5212402  
4780.0      5631.8447266    3428.1245117    2783.8591309  
4800.0      5641.1411133    3434.5661621    2784.1970215  
4820.0      5650.4375000    3441.0078125    2784.5349121  
4840.0      5659.7343750    3447.4497070    2784.8728027  
4860.0      5669.0307617    3453.8911133    2785.2106934  
4880.0      5678.3266602    3460.3330078    2785.5483398  
4900.0      5687.6235352    3466.7744141    2785.8864746  
4920.0      5696.9199219    3473.2163086    2786.2241211  
4940.0      5706.2158203    3479.6579590    2786.5620117  
4960.0      5715.5126953    3486.0996094    2786.8999023  
4980.0      5724.8085938    3492.5412598    2787.2377930  
5000.0      5734.1049805    3498.9831543    2787.5756836  
