# CI_TA2 -117.67810447 34.38204876
# 
# Depth (m)   Vp (m/s)        Vs(m/s)      Density(kg/m3)
   0.0      4286.5151367    2381.9736328    2756.7270508  
  20.0      4286.8383789    2382.0915527    2756.7270508  
  40.0      4287.1611328    2382.2094727    2756.7270508  
  60.0      4287.4843750    2382.3271484    2756.7270508  
  80.0      4287.8076172    2382.4448242    2756.7270508  
 100.0      4288.1308594    2382.5627441    2756.7270508  
 120.0      4288.4536133    2382.6806641    2756.7270508  
 140.0      4288.7768555    2382.7983398    2756.7270508  
 160.0      4289.0996094    2382.9160156    2756.7270508  
 180.0      4289.4228516    2383.0339355    2756.7270508  
 200.0      4289.7460938    2383.1518555    2756.7270508  
 220.0      4290.0688477    2383.2695312    2756.7270508  
 240.0      4290.3920898    2383.3872070    2756.7270508  
 260.0      4290.7148438    2383.5051270    2756.7270508  
 280.0      4291.0380859    2383.6230469    2756.7270508  
 300.0      4291.3613281    2383.7407227    2756.7270508  
 320.0      4291.6845703    2383.8583984    2756.7270508  
 340.0      4292.0073242    2383.9763184    2756.7270508  
 360.0      4292.3305664    2384.0942383    2756.7270508  
 380.0      4292.6533203    2384.2119141    2756.7270508  
 400.0      4292.9765625    2384.3298340    2756.7270508  
 420.0      4293.2998047    2384.4475098    2756.7270508  
 440.0      4293.6230469    2384.5654297    2756.7270508  
 460.0      4293.9458008    2384.6831055    2756.7270508  
 480.0      4294.2690430    2384.8010254    2756.7270508  
 500.0      4294.5917969    2384.9187012    2756.7270508  
 520.0      4306.6933594    2394.4970703    2756.7270508  
 540.0      4318.7944336    2404.0751953    2756.7270508  
 560.0      4330.8959961    2413.6533203    2756.7270508  
 580.0      4342.9970703    2423.2314453    2756.7270508  
 600.0      4355.0986328    2432.8095703    2756.7270508  
 620.0      4367.1997070    2442.3876953    2756.7270508  
 640.0      4379.3007812    2451.9658203    2756.7270508  
 660.0      4391.4023438    2461.5439453    2756.7270508  
 680.0      4403.5039062    2471.1223145    2756.7270508  
 700.0      4415.6049805    2480.7004395    2756.7270508  
 720.0      4427.7060547    2490.2785645    2756.7270508  
 740.0      4439.8076172    2499.8566895    2756.7270508  
 760.0      4451.9086914    2509.4348145    2756.7270508  
 780.0      4464.0102539    2519.0131836    2756.7270508  
 800.0      4476.1113281    2528.5913086    2756.7270508  
 820.0      4488.2128906    2538.1694336    2756.7270508  
 840.0      4500.3139648    2547.7475586    2756.7270508  
 860.0      4512.4150391    2557.3256836    2756.7270508  
 880.0      4524.5166016    2566.9038086    2756.7270508  
 900.0      4536.6181641    2576.4821777    2756.7270508  
 920.0      4548.7192383    2586.0603027    2756.7270508  
 940.0      4560.8203125    2595.6384277    2756.7270508  
 960.0      4572.9218750    2605.2165527    2756.7270508  
 980.0      4585.0229492    2614.7946777    2756.7270508  
1000.0      4597.1508789    2624.3999023    2756.7312012  
1020.0      4612.8710938    2637.0039062    2757.0710449  
1040.0      4628.5922852    2649.6081543    2757.4111328  
1060.0      4644.3129883    2662.2121582    2757.7509766  
1080.0      4660.0341797    2674.8164062    2758.0910645  
1100.0      4675.7548828    2687.4201660    2758.4309082  
1120.0      4691.4760742    2700.0244141    2758.7709961  
1140.0      4707.1967773    2712.6284180    2759.1108398  
1160.0      4722.9179688    2725.2324219    2759.4509277  
1180.0      4738.6381836    2737.8369141    2759.7910156  
1200.0      4754.3588867    2750.4409180    2760.1308594  
1220.0      4770.0800781    2763.0449219    2760.4707031  
1240.0      4785.8007812    2775.6491699    2760.8107910  
1260.0      4801.5219727    2788.2531738    2761.1508789  
1280.0      4817.2421875    2800.8571777    2761.4907227  
1300.0      4832.9633789    2813.4614258    2761.8305664  
1320.0      4848.6840820    2826.0651855    2762.1706543  
1340.0      4864.4052734    2838.6694336    2762.5107422  
1360.0      4880.1259766    2851.2734375    2762.8505859  
1380.0      4895.8471680    2863.8776855    2763.1906738  
1400.0      4911.5678711    2876.4816895    2763.5305176  
1420.0      4927.2880859    2889.0859375    2763.8706055  
1440.0      4943.0092773    2901.6899414    2764.2104492  
1460.0      4958.7304688    2914.2941895    2764.5505371  
1480.0      4974.4511719    2926.8981934    2764.8903809  
1500.0      4990.1718750    2939.5021973    2765.2304688  
1520.0      4999.9228516    2946.2766113    2765.5703125  
1540.0      5009.6738281    2953.0512695    2765.9101562  
1560.0      5019.4257812    2959.8251953    2766.2502441  
1580.0      5029.1772461    2966.6000977    2766.5903320  
1600.0      5038.9282227    2973.3742676    2766.9301758  
1620.0      5048.6796875    2980.1486816    2767.2700195  
1640.0      5058.4311523    2986.9230957    2767.6101074  
1660.0      5068.1826172    2993.6977539    2767.9501953  
1680.0      5077.9331055    3000.4716797    2768.2900391  
1700.0      5087.6850586    3007.2465820    2768.6301270  
1720.0      5097.4365234    3014.0205078    2768.9699707  
1740.0      5107.1879883    3020.7951660    2769.3100586  
1760.0      5116.9384766    3027.5695801    2769.6499023  
1780.0      5126.6904297    3034.3439941    2769.9899902  
1800.0      5136.4418945    3041.1181641    2770.3298340  
1820.0      5146.1933594    3047.8925781    2770.6699219  
1840.0      5155.9438477    3054.6669922    2771.0097656  
1860.0      5165.6962891    3061.4416504    2771.3498535  
1880.0      5175.4467773    3068.2160645    2771.6896973  
1900.0      5185.1977539    3074.9904785    2772.0295410  
1920.0      5194.9492188    3081.7646484    2772.3696289  
1940.0      5204.7011719    3088.5393066    2772.7094727  
1960.0      5214.4521484    3095.3134766    2773.0495605  
1980.0      5224.2031250    3102.0876465    2773.3894043  
2000.0      5233.9545898    3108.8623047    2773.7294922  
2020.0      5244.3222656    3116.0681152    2774.0695801  
2040.0      5254.6889648    3123.2734375    2774.4094238  
2060.0      5265.0556641    3130.4790039    2774.7495117  
2080.0      5275.4228516    3137.6845703    2775.0893555  
2100.0      5285.7895508    3144.8901367    2775.4291992  
2120.0      5296.1567383    3152.0959473    2775.7692871  
2140.0      5306.5239258    3159.3017578    2776.1093750  
2160.0      5316.8911133    3166.5068359    2776.4492188  
2180.0      5327.2578125    3173.7121582    2776.7890625  
2200.0      5337.6250000    3180.9182129    2777.1291504  
2220.0      5347.9916992    3188.1237793    2777.4692383  
2240.0      5358.3588867    3195.3293457    2777.8090820  
2260.0      5368.7260742    3202.5349121    2778.1489258  
2280.0      5379.0932617    3209.7404785    2778.4890137  
2300.0      5389.4599609    3216.9460449    2778.8291016  
2320.0      5399.8271484    3224.1516113    2779.1689453  
2340.0      5410.1933594    3231.3574219    2779.5087891  
2360.0      5420.5615234    3238.5629883    2779.8488770  
2380.0      5430.9282227    3245.7685547    2780.1889648  
2400.0      5441.2949219    3252.9741211    2780.5288086  
2420.0      5451.6616211    3260.1794434    2780.8686523  
2440.0      5462.0288086    3267.3852539    2781.2087402  
2460.0      5472.3959961    3274.5910645    2781.5488281  
2480.0      5482.7631836    3281.7966309    2781.8886719  
2500.0      5493.1298828    3289.0021973    2782.2285156  
2520.0      5496.5004883    3290.0595703    2782.5686035  
2540.0      5499.8710938    3291.1166992    2782.9086914  
2560.0      5503.2412109    3292.1740723    2783.2485352  
2580.0      5506.6108398    3293.2309570    2783.5883789  
2600.0      5509.9814453    3294.2885742    2783.9284668  
2620.0      5513.3515625    3295.3459473    2784.2685547  
2640.0      5516.7216797    3296.4028320    2784.6083984  
2660.0      5520.0922852    3297.4604492    2784.9484863  
2680.0      5523.4628906    3298.5178223    2785.2883301  
2700.0      5526.8334961    3299.5751953    2785.6284180  
2720.0      5530.2031250    3300.6323242    2785.9682617  
2740.0      5533.5737305    3301.6896973    2786.3083496  
2760.0      5536.9443359    3302.7468262    2786.6484375  
2780.0      5540.3144531    3303.8041992    2786.9882812  
2800.0      5543.6845703    3304.8615723    2787.3281250  
2820.0      5547.0546875    3305.9187012    2787.6682129  
2840.0      5550.4248047    3306.9760742    2788.0080566  
2860.0      5553.7954102    3308.0336914    2788.3481445  
2880.0      5557.1655273    3309.0905762    2788.6879883  
2900.0      5560.5361328    3310.1479492    2789.0280762  
2920.0      5563.9062500    3311.2053223    2789.3679199  
2940.0      5567.2763672    3312.2624512    2789.7080078  
2960.0      5570.6469727    3313.3200684    2790.0478516  
2980.0      5574.0175781    3314.3771973    2790.3879395  
3000.0      5577.3872070    3315.4343262    2790.7277832  
3020.0      5580.5429688    3316.1755371    2791.0678711  
3040.0      5583.6992188    3316.9165039    2791.4077148  
3060.0      5586.8544922    3317.6574707    2791.7478027  
3080.0      5590.0107422    3318.3986816    2792.0878906  
3100.0      5593.1660156    3319.1394043    2792.4277344  
3120.0      5596.3217773    3319.8803711    2792.7675781  
3140.0      5599.4775391    3320.6213379    2793.1076660  
3160.0      5602.6328125    3321.3623047    2793.4475098  
3180.0      5605.7890625    3322.1035156    2793.7875977  
3200.0      5608.9448242    3322.8444824    2794.1274414  
3220.0      5612.1005859    3323.5852051    2794.4675293  
3240.0      5615.2558594    3324.3264160    2794.8073730  
3260.0      5618.4121094    3325.0673828    2795.1474609  
3280.0      5621.5678711    3325.8083496    2795.4875488  
3300.0      5624.7231445    3326.5493164    2795.8273926  
3320.0      5627.8789062    3327.2902832    2796.1672363  
3340.0      5631.0346680    3328.0312500    2796.5073242  
3360.0      5634.1904297    3328.7722168    2796.8471680  
3380.0      5637.3457031    3329.5134277    2797.1872559  
3400.0      5640.5019531    3330.2543945    2797.5273438  
3420.0      5643.6577148    3330.9951172    2797.8671875  
3440.0      5646.8129883    3331.7360840    2798.2070312  
3460.0      5649.9687500    3332.4772949    2798.5471191  
3480.0      5653.1250000    3333.2180176    2798.8872070  
3500.0      5656.2802734    3333.9592285    2799.2270508  
3520.0      5657.7001953    3333.3391113    2799.5668945  
3540.0      5659.1210938    3332.7192383    2799.9069824  
3560.0      5660.5415039    3332.0991211    2800.2470703  
3580.0      5661.9619141    3331.4790039    2800.5869141  
3600.0      5663.3818359    3330.8591309    2800.9267578  
3620.0      5664.8027344    3330.2392578    2801.2668457  
3640.0      5666.2226562    3329.6193848    2801.6069336  
3660.0      5667.6435547    3328.9990234    2801.9467773  
3680.0      5669.0634766    3328.3791504    2802.2866211  
3700.0      5670.4843750    3327.7590332    2802.6267090  
3720.0      5671.9042969    3327.1389160    2802.9667969  
3740.0      5673.3251953    3326.5190430    2803.3066406  
3760.0      5674.7451172    3325.8991699    2803.6464844  
3780.0      5676.1650391    3325.2790527    2803.9865723  
3800.0      5677.5859375    3324.6591797    2804.3266602  
3820.0      5679.0063477    3324.0388184    2804.6665039  
3840.0      5680.4267578    3323.4189453    2805.0063477  
3860.0      5681.8471680    3322.7990723    2805.3464355  
3880.0      5683.2675781    3322.1787109    2805.6865234  
3900.0      5684.6875000    3321.5588379    2806.0263672  
3920.0      5686.1083984    3320.9389648    2806.3664551  
3940.0      5687.5283203    3320.3188477    2806.7062988  
3960.0      5688.9482422    3319.6987305    2807.0463867  
3980.0      5690.3691406    3319.0788574    2807.3862305  
4000.0      5691.7895508    3318.4587402    2807.7263184  
4020.0      5693.1782227    3317.8149414    2808.0661621  
4040.0      5694.5683594    3317.1706543    2808.4062500  
4060.0      5695.9575195    3316.5266113    2808.7460938  
4080.0      5697.3461914    3315.8825684    2809.0859375  
4100.0      5698.7358398    3315.2382812    2809.4260254  
4120.0      5700.1250000    3314.5942383    2809.7661133  
4140.0      5701.5141602    3313.9501953    2810.1059570  
4160.0      5702.9033203    3313.3061523    2810.4458008  
4180.0      5704.2924805    3312.6621094    2810.7858887  
4200.0      5705.6821289    3312.0180664    2811.1259766  
4220.0      5707.0712891    3311.3737793    2811.4658203  
4240.0      5708.4604492    3310.7299805    2811.8059082  
4260.0      5709.8500977    3310.0854492    2812.1457520  
4280.0      5711.2392578    3309.4416504    2812.4858398  
4300.0      5712.6289062    3308.7973633    2812.8256836  
4320.0      5714.0175781    3308.1533203    2813.1657715  
4340.0      5715.4067383    3307.5092773    2813.5056152  
4360.0      5716.7963867    3306.8652344    2813.8457031  
4380.0      5718.1855469    3306.2211914    2814.1855469  
4400.0      5719.5742188    3305.5771484    2814.5253906  
4420.0      5720.9638672    3304.9331055    2814.8654785  
4440.0      5722.3535156    3304.2888184    2815.2055664  
4460.0      5723.7421875    3303.6450195    2815.5454102  
4480.0      5725.1318359    3303.0007324    2815.8854980  
4500.0      5726.5205078    3302.3566895    2816.2253418  
4520.0      5728.1567383    3302.1437988    2816.5654297  
4540.0      5729.7929688    3301.9309082    2816.9052734  
4560.0      5731.4291992    3301.7182617    2817.2453613  
4580.0      5733.0649414    3301.5053711    2817.5852051  
4600.0      5734.7016602    3301.2924805    2817.9252930  
4620.0      5736.3374023    3301.0798340    2818.2651367  
4640.0      5737.9736328    3300.8669434    2818.6052246  
4660.0      5739.6098633    3300.6542969    2818.9450684  
4680.0      5741.2460938    3300.4414062    2819.2851562  
4700.0      5742.8823242    3300.2285156    2819.6250000  
4720.0      5744.5185547    3300.0158691    2819.9650879  
4740.0      5746.1542969    3299.8029785    2820.3049316  
4760.0      5747.7905273    3299.5900879    2820.6450195  
4780.0      5749.4267578    3299.3774414    2820.9848633  
4800.0      5751.0625000    3299.1645508    2821.3247070  
4820.0      5752.6987305    3298.9519043    2821.6647949  
4840.0      5754.3354492    3298.7390137    2822.0048828  
4860.0      5755.9711914    3298.5261230    2822.3447266  
4880.0      5757.6074219    3298.3134766    2822.6848145  
4900.0      5759.2436523    3298.1003418    2823.0246582  
4920.0      5760.8793945    3297.8876953    2823.3647461  
4940.0      5762.5151367    3297.6748047    2823.7045898  
4960.0      5764.1513672    3297.4621582    2824.0446777  
4980.0      5765.7875977    3297.2495117    2824.3845215  
5000.0      5767.4238281    3297.0366211    2824.7246094  
