# CI_STG -117.76856839 33.66392344
# 
# Depth (m)   Vp (m/s)        Vs(m/s)      Density(kg/m3)
   0.0      3532.7861328    1978.3679199    2569.3608398  
  20.0      3530.6762695    1977.3395996    2569.3608398  
  40.0      3528.5664062    1976.3114014    2569.3608398  
  60.0      3526.4565430    1975.2830811    2569.3608398  
  80.0      3524.3466797    1974.2547607    2569.3608398  
 100.0      3522.2368164    1973.2264404    2569.3608398  
 120.0      3520.1269531    1972.1982422    2569.3608398  
 140.0      3518.0170898    1971.1699219    2569.3608398  
 160.0      3515.9069824    1970.1416016    2569.3608398  
 180.0      3513.7971191    1969.1132812    2569.3608398  
 200.0      3511.6872559    1968.0849609    2569.3608398  
 220.0      3509.5773926    1967.0566406    2569.3608398  
 240.0      3507.4675293    1966.0283203    2569.3608398  
 260.0      3505.3574219    1965.0001221    2569.3608398  
 280.0      3503.2475586    1963.9718018    2569.3608398  
 300.0      3501.1376953    1962.9434814    2569.3608398  
 320.0      3499.0278320    1961.9151611    2569.3608398  
 340.0      3496.9179688    1960.8869629    2569.3608398  
 360.0      3494.8081055    1959.8586426    2569.3608398  
 380.0      3492.6982422    1958.8303223    2569.3608398  
 400.0      3490.5883789    1957.8020020    2569.3608398  
 420.0      3488.4785156    1956.7736816    2569.3608398  
 440.0      3486.3684082    1955.7453613    2569.3608398  
 460.0      3484.2585449    1954.7171631    2569.3608398  
 480.0      3482.1486816    1953.6888428    2569.3608398  
 500.0      3480.0388184    1952.6605225    2569.3608398  
 520.0      3487.5500488    1957.7669678    2569.3608398  
 540.0      3495.0615234    1962.8734131    2569.3608398  
 560.0      3502.5727539    1967.9798584    2569.3608398  
 580.0      3510.0839844    1973.0863037    2569.3608398  
 600.0      3517.5952148    1978.1927490    2569.3608398  
 620.0      3525.1064453    1983.2991943    2569.3608398  
 640.0      3532.6176758    1988.4056396    2569.3608398  
 660.0      3540.1291504    1993.5120850    2569.3608398  
 680.0      3547.6403809    1998.6185303    2569.3608398  
 700.0      3555.1516113    2003.7249756    2569.3608398  
 720.0      3562.6630859    2008.8314209    2569.3608398  
 740.0      3570.1743164    2013.9378662    2569.3608398  
 760.0      3577.6855469    2019.0443115    2569.3608398  
 780.0      3585.1967773    2024.1508789    2569.3608398  
 800.0      3592.7080078    2029.2573242    2569.3608398  
 820.0      3600.2194824    2034.3637695    2569.3608398  
 840.0      3607.7307129    2039.4702148    2569.3608398  
 860.0      3615.2419434    2044.5766602    2569.3608398  
 880.0      3622.7534180    2049.6831055    2569.3608398  
 900.0      3630.2646484    2054.7895508    2569.3608398  
 920.0      3637.7758789    2059.8959961    2569.3608398  
 940.0      3645.2871094    2065.0024414    2569.3608398  
 960.0      3652.7983398    2070.1088867    2569.3608398  
 980.0      3660.3095703    2075.2153320    2569.3608398  
1000.0      3667.9060059    2080.4060059    2569.3742676  
1020.0      3684.9250488    2093.2343750    2570.4763184  
1040.0      3701.9445801    2106.0632324    2571.5786133  
1060.0      3718.9636230    2118.8916016    2572.6806641  
1080.0      3735.9831543    2131.7199707    2573.7829590  
1100.0      3753.0021973    2144.5483398    2574.8850098  
1120.0      3770.0212402    2157.3769531    2575.9873047  
1140.0      3787.0407715    2170.2055664    2577.0893555  
1160.0      3804.0598145    2183.0341797    2578.1914062  
1180.0      3821.0788574    2195.8625488    2579.2937012  
1200.0      3838.0983887    2208.6909180    2580.3959961  
1220.0      3855.1174316    2221.5195312    2581.4980469  
1240.0      3872.1364746    2234.3481445    2582.6000977  
1260.0      3889.1555176    2247.1767578    2583.7023926  
1280.0      3906.1750488    2260.0051270    2584.8044434  
1300.0      3923.1940918    2272.8334961    2585.9067383  
1320.0      3940.2131348    2285.6621094    2587.0087891  
1340.0      3957.2326660    2298.4907227    2588.1110840  
1360.0      3974.2517090    2311.3190918    2589.2131348  
1380.0      3991.2712402    2324.1477051    2590.3154297  
1400.0      4008.2902832    2336.9760742    2591.4174805  
1420.0      4025.3093262    2349.8046875    2592.5195312  
1440.0      4042.3283691    2362.6333008    2593.6218262  
1460.0      4059.3479004    2375.4619141    2594.7241211  
1480.0      4076.3669434    2388.2902832    2595.8261719  
1500.0      4093.3859863    2401.1186523    2596.9282227  
1520.0      4104.6210938    2410.2727051    2598.0302734  
1540.0      4115.8564453    2419.4272461    2599.1325684  
1560.0      4127.0908203    2428.5812988    2600.2348633  
1580.0      4138.3261719    2437.7358398    2601.3369141  
1600.0      4149.5615234    2446.8898926    2602.4392090  
1620.0      4160.7958984    2456.0439453    2603.5412598  
1640.0      4172.0307617    2465.1984863    2604.6435547  
1660.0      4183.2661133    2474.3527832    2605.7456055  
1680.0      4194.5009766    2483.5068359    2606.8476562  
1700.0      4205.7358398    2492.6611328    2607.9499512  
1720.0      4216.9711914    2501.8154297    2609.0522461  
1740.0      4228.2065430    2510.9697266    2610.1542969  
1760.0      4239.4409180    2520.1237793    2611.2563477  
1780.0      4250.6762695    2529.2780762    2612.3586426  
1800.0      4261.9111328    2538.4323730    2613.4606934  
1820.0      4273.1459961    2547.5866699    2614.5629883  
1840.0      4284.3808594    2556.7409668    2615.6650391  
1860.0      4295.6162109    2565.8950195    2616.7673340  
1880.0      4306.8510742    2575.0493164    2617.8693848  
1900.0      4318.0864258    2584.2033691    2618.9716797  
1920.0      4329.3208008    2593.3576660    2620.0737305  
1940.0      4340.5561523    2602.5119629    2621.1757812  
1960.0      4351.7915039    2611.6662598    2622.2780762  
1980.0      4363.0263672    2620.8205566    2623.3803711  
2000.0      4374.2612305    2629.9746094    2624.4824219  
2020.0      4386.1186523    2639.4580078    2625.5844727  
2040.0      4397.9750977    2648.9404297    2626.6867676  
2060.0      4409.8320312    2658.4235840    2627.7888184  
2080.0      4421.6894531    2667.9067383    2628.8911133  
2100.0      4433.5458984    2677.3896484    2629.9931641  
2120.0      4445.4028320    2686.8728027    2631.0952148  
2140.0      4457.2602539    2696.3559570    2632.1975098  
2160.0      4469.1171875    2705.8386230    2633.2998047  
2180.0      4480.9736328    2715.3215332    2634.4018555  
2200.0      4492.8310547    2724.8046875    2635.5041504  
2220.0      4504.6879883    2734.2875977    2636.6062012  
2240.0      4516.5449219    2743.7707520    2637.7084961  
2260.0      4528.4013672    2753.2536621    2638.8105469  
2280.0      4540.2587891    2762.7368164    2639.9125977  
2300.0      4552.1157227    2772.2197266    2641.0148926  
2320.0      4563.9726562    2781.7026367    2642.1169434  
2340.0      4575.8291016    2791.1855469    2643.2192383  
2360.0      4587.6865234    2800.6689453    2644.3212891  
2380.0      4599.5434570    2810.1516113    2645.4233398  
2400.0      4611.4003906    2819.6347656    2646.5256348  
2420.0      4623.2573242    2829.1179199    2647.6279297  
2440.0      4635.1147461    2838.6008301    2648.7299805  
2460.0      4646.9711914    2848.0837402    2649.8320312  
2480.0      4658.8281250    2857.5666504    2650.9343262  
2500.0      4670.6850586    2867.0495605    2652.0363770  
2520.0      4678.5307617    2872.3774414    2653.1386719  
2540.0      4686.3769531    2877.7055664    2654.2407227  
2560.0      4694.2226562    2883.0334473    2655.3430176  
2580.0      4702.0683594    2888.3610840    2656.4450684  
2600.0      4709.9145508    2893.6889648    2657.5473633  
2620.0      4717.7602539    2899.0170898    2658.6494141  
2640.0      4725.6059570    2904.3447266    2659.7514648  
2660.0      4733.4521484    2909.6726074    2660.8537598  
2680.0      4741.2983398    2915.0007324    2661.9560547  
2700.0      4749.1435547    2920.3286133    2663.0581055  
2720.0      4756.9897461    2925.6564941    2664.1601562  
2740.0      4764.8359375    2930.9843750    2665.2624512  
2760.0      4772.6811523    2936.3125000    2666.3645020  
2780.0      4780.5273438    2941.6398926    2667.4667969  
2800.0      4788.3725586    2946.9677734    2668.5688477  
2820.0      4796.2187500    2952.2958984    2669.6711426  
2840.0      4804.0644531    2957.6237793    2670.7734375  
2860.0      4811.9101562    2962.9516602    2671.8754883  
2880.0      4819.7558594    2968.2795410    2672.9775391  
2900.0      4827.6020508    2973.6076660    2674.0798340  
2920.0      4835.4477539    2978.9355469    2675.1818848  
2940.0      4843.2934570    2984.2629395    2676.2841797  
2960.0      4851.1396484    2989.5908203    2677.3862305  
2980.0      4858.9853516    2994.9189453    2678.4882812  
3000.0      4866.8310547    3000.2468262    2679.5905762  
3020.0      4873.6855469    3004.5595703    2680.6928711  
3040.0      4880.5390625    3008.8723145    2681.7949219  
3060.0      4887.3930664    3013.1845703    2682.8969727  
3080.0      4894.2475586    3017.4973145    2683.9992676  
3100.0      4901.1005859    3021.8098145    2685.1013184  
3120.0      4907.9550781    3026.1228027    2686.2036133  
3140.0      4914.8095703    3030.4353027    2687.3056641  
3160.0      4921.6630859    3034.7480469    2688.4079590  
3180.0      4928.5170898    3039.0607910    2689.5100098  
3200.0      4935.3710938    3043.3730469    2690.6123047  
3220.0      4942.2250977    3047.6857910    2691.7143555  
3240.0      4949.0791016    3051.9985352    2692.8164062  
3260.0      4955.9331055    3056.3110352    2693.9187012  
3280.0      4962.7871094    3060.6237793    2695.0209961  
3300.0      4969.6411133    3064.9365234    2696.1230469  
3320.0      4976.4951172    3069.2492676    2697.2250977  
3340.0      4983.3486328    3073.5617676    2698.3273926  
3360.0      4990.2031250    3077.8745117    2699.4294434  
3380.0      4997.0571289    3082.1870117    2700.5317383  
3400.0      5003.9111328    3086.4995117    2701.6337891  
3420.0      5010.7651367    3090.8122559    2702.7360840  
3440.0      5017.6191406    3095.1250000    2703.8381348  
3460.0      5024.4726562    3099.4377441    2704.9404297  
3480.0      5031.3271484    3103.7502441    2706.0424805  
3500.0      5038.1806641    3108.0627441    2707.1445312  
3520.0      5048.4755859    3114.7111816    2708.2468262  
3540.0      5058.7705078    3121.3596191    2709.3491211  
3560.0      5069.0649414    3128.0080566    2710.4511719  
3580.0      5079.3593750    3134.6567383    2711.5532227  
3600.0      5089.6542969    3141.3051758    2712.6555176  
3620.0      5099.9487305    3147.9538574    2713.7575684  
3640.0      5110.2431641    3154.6022949    2714.8598633  
3660.0      5120.5380859    3161.2504883    2715.9619141  
3680.0      5130.8325195    3167.8991699    2717.0642090  
3700.0      5141.1269531    3174.5473633    2718.1662598  
3720.0      5151.4218750    3181.1960449    2719.2685547  
3740.0      5161.7163086    3187.8444824    2720.3706055  
3760.0      5172.0107422    3194.4929199    2721.4726562  
3780.0      5182.3056641    3201.1416016    2722.5749512  
3800.0      5192.6000977    3207.7900391    2723.6772461  
3820.0      5202.8945312    3214.4379883    2724.7792969  
3840.0      5213.1894531    3221.0869141    2725.8813477  
3860.0      5223.4833984    3227.7351074    2726.9833984  
3880.0      5233.7783203    3234.3837891    2728.0856934  
3900.0      5244.0732422    3241.0322266    2729.1879883  
3920.0      5254.3676758    3247.6806641    2730.2900391  
3940.0      5264.6621094    3254.3291016    2731.3920898  
3960.0      5274.9565430    3260.9775391    2732.4943848  
3980.0      5285.2509766    3267.6259766    2733.5964355  
4000.0      5295.5458984    3274.2744141    2734.6987305  
4020.0      5308.0117188    3281.6281738    2735.8010254  
4040.0      5320.4765625    3288.9821777    2736.9030762  
4060.0      5332.9414062    3296.3356934    2738.0053711  
4080.0      5345.4062500    3303.6892090    2739.1074219  
4100.0      5357.8715820    3311.0427246    2740.2094727  
4120.0      5370.3369141    3318.3967285    2741.3117676  
4140.0      5382.8022461    3325.7504883    2742.4140625  
4160.0      5395.2670898    3333.1042480    2743.5161133  
4180.0      5407.7319336    3340.4577637    2744.6181641  
4200.0      5420.1977539    3347.8115234    2745.7204590  
4220.0      5432.6621094    3355.1650391    2746.8225098  
4240.0      5445.1274414    3362.5187988    2747.9248047  
4260.0      5457.5922852    3369.8725586    2749.0268555  
4280.0      5470.0581055    3377.2263184    2750.1291504  
4300.0      5482.5224609    3384.5798340    2751.2312012  
4320.0      5494.9877930    3391.9338379    2752.3334961  
4340.0      5507.4531250    3399.2875977    2753.4355469  
4360.0      5519.9184570    3406.6411133    2754.5375977  
4380.0      5532.3833008    3413.9946289    2755.6398926  
4400.0      5544.8481445    3421.3483887    2756.7419434  
4420.0      5557.3134766    3428.7021484    2757.8442383  
4440.0      5569.7788086    3436.0559082    2758.9462891  
4460.0      5582.2436523    3443.4094238    2760.0483398  
4480.0      5594.7089844    3450.7634277    2761.1506348  
4500.0      5607.1738281    3458.1169434    2762.2529297  
4520.0      5623.3623047    3466.8613281    2763.3549805  
4540.0      5639.5512695    3475.6062012    2764.4570312  
4560.0      5655.7392578    3484.3505859    2765.5593262  
4580.0      5671.9277344    3493.0954590    2766.6613770  
4600.0      5688.1166992    3501.8400879    2767.7636719  
4620.0      5704.3046875    3510.5847168    2768.8657227  
4640.0      5720.4931641    3519.3291016    2769.9680176  
4660.0      5736.6821289    3528.0737305    2771.0703125  
4680.0      5752.8701172    3536.8183594    2772.1723633  
4700.0      5769.0585938    3545.5629883    2773.2744141  
4720.0      5785.2470703    3554.3076172    2774.3764648  
4740.0      5801.4355469    3563.0524902    2775.4787598  
4760.0      5817.6245117    3571.7971191    2776.5810547  
4780.0      5833.8129883    3580.5415039    2777.6831055  
4800.0      5850.0009766    3589.2861328    2778.7851562  
4820.0      5866.1894531    3598.0307617    2779.8874512  
4840.0      5882.3779297    3606.7753906    2780.9895020  
4860.0      5898.5664062    3615.5200195    2782.0917969  
4880.0      5914.7553711    3624.2648926    2783.1940918  
4900.0      5930.9433594    3633.0095215    2784.2961426  
4920.0      5947.1318359    3641.7539062    2785.3981934  
4940.0      5963.3203125    3650.4985352    2786.5004883  
4960.0      5979.5092773    3659.2431641    2787.6025391  
4980.0      5995.6972656    3667.9880371    2788.7048340  
5000.0      6011.8857422    3676.7324219    2789.8068848  
