# CI_MWC -118.05826808 34.22367586
# 
# Depth (m)   Vp (m/s)        Vs(m/s)      Density(kg/m3)
   0.0      4774.0830078    2596.8530273    2752.3063965  
  20.0      4759.2934570    2588.3781738    2752.3063965  
  40.0      4744.5039062    2579.9035645    2752.3063965  
  60.0      4729.7143555    2571.4289551    2752.3063965  
  80.0      4714.9248047    2562.9543457    2752.3063965  
 100.0      4700.1352539    2554.4797363    2752.3063965  
 120.0      4685.3457031    2546.0048828    2752.3063965  
 140.0      4670.5561523    2537.5302734    2752.3063965  
 160.0      4655.7666016    2529.0556641    2752.3063965  
 180.0      4640.9770508    2520.5810547    2752.3063965  
 200.0      4626.1875000    2512.1064453    2752.3063965  
 220.0      4611.3974609    2503.6318359    2752.3063965  
 240.0      4596.6079102    2495.1569824    2752.3063965  
 260.0      4581.8183594    2486.6823730    2752.3063965  
 280.0      4567.0292969    2478.2077637    2752.3063965  
 300.0      4552.2392578    2469.7331543    2752.3063965  
 320.0      4537.4497070    2461.2585449    2752.3063965  
 340.0      4522.6601562    2452.7836914    2752.3063965  
 360.0      4507.8706055    2444.3090820    2752.3063965  
 380.0      4493.0810547    2435.8344727    2752.3063965  
 400.0      4478.2915039    2427.3598633    2752.3063965  
 420.0      4463.5019531    2418.8852539    2752.3063965  
 440.0      4448.7124023    2410.4106445    2752.3063965  
 460.0      4433.9228516    2401.9360352    2752.3063965  
 480.0      4419.1333008    2393.4611816    2752.3063965  
 500.0      4404.3437500    2384.9865723    2752.3063965  
 520.0      4410.8291016    2389.9440918    2752.3063965  
 540.0      4417.3144531    2394.9016113    2752.3063965  
 560.0      4423.8002930    2399.8591309    2752.3063965  
 580.0      4430.2856445    2404.8166504    2752.3063965  
 600.0      4436.7709961    2409.7741699    2752.3063965  
 620.0      4443.2568359    2414.7316895    2752.3063965  
 640.0      4449.7421875    2419.6892090    2752.3063965  
 660.0      4456.2275391    2424.6467285    2752.3063965  
 680.0      4462.7128906    2429.6042480    2752.3063965  
 700.0      4469.1987305    2434.5617676    2752.3063965  
 720.0      4475.6840820    2439.5192871    2752.3063965  
 740.0      4482.1699219    2444.4768066    2752.3063965  
 760.0      4488.6552734    2449.4343262    2752.3063965  
 780.0      4495.1406250    2454.3918457    2752.3063965  
 800.0      4501.6259766    2459.3493652    2752.3063965  
 820.0      4508.1113281    2464.3068848    2752.3063965  
 840.0      4514.5971680    2469.2644043    2752.3063965  
 860.0      4521.0825195    2474.2219238    2752.3063965  
 880.0      4527.5683594    2479.1794434    2752.3063965  
 900.0      4534.0537109    2484.1369629    2752.3063965  
 920.0      4540.5390625    2489.0944824    2752.3063965  
 940.0      4547.0244141    2494.0520020    2752.3063965  
 960.0      4553.5097656    2499.0095215    2752.3063965  
 980.0      4559.9956055    2503.9670410    2752.3063965  
1000.0      4566.5126953    2508.9794922    2752.3115234  
1020.0      4578.4106445    2518.6088867    2752.7202148  
1040.0      4590.3085938    2528.2382812    2753.1289062  
1060.0      4602.2065430    2537.8679199    2753.5375977  
1080.0      4614.1044922    2547.4973145    2753.9462891  
1100.0      4626.0029297    2557.1267090    2754.3549805  
1120.0      4637.9013672    2566.7561035    2754.7639160  
1140.0      4649.7983398    2576.3857422    2755.1726074  
1160.0      4661.6967773    2586.0151367    2755.5812988  
1180.0      4673.5947266    2595.6447754    2755.9902344  
1200.0      4685.4926758    2605.2739258    2756.3989258  
1220.0      4697.3911133    2614.9035645    2756.8076172  
1240.0      4709.2890625    2624.5327148    2757.2163086  
1260.0      4721.1870117    2634.1625977    2757.6250000  
1280.0      4733.0849609    2643.7917480    2758.0339355  
1300.0      4744.9829102    2653.4213867    2758.4426270  
1320.0      4756.8808594    2663.0505371    2758.8513184  
1340.0      4768.7792969    2672.6801758    2759.2602539  
1360.0      4780.6772461    2682.3095703    2759.6689453  
1380.0      4792.5751953    2691.9392090    2760.0776367  
1400.0      4804.4731445    2701.5683594    2760.4863281  
1420.0      4816.3710938    2711.1979980    2760.8950195  
1440.0      4828.2690430    2720.8276367    2761.3037109  
1460.0      4840.1669922    2730.4567871    2761.7124023  
1480.0      4852.0654297    2740.0861816    2762.1213379  
1500.0      4863.9633789    2749.7158203    2762.5300293  
1520.0      4869.9208984    2755.3657227    2762.9387207  
1540.0      4875.8789062    2761.0161133    2763.3476562  
1560.0      4881.8369141    2766.6665039    2763.7563477  
1580.0      4887.7949219    2772.3166504    2764.1650391  
1600.0      4893.7519531    2777.9665527    2764.5737305  
1620.0      4899.7099609    2783.6169434    2764.9824219  
1640.0      4905.6679688    2789.2673340    2765.3913574  
1660.0      4911.6254883    2794.9174805    2765.8000488  
1680.0      4917.5830078    2800.5676270    2766.2087402  
1700.0      4923.5415039    2806.2177734    2766.6176758  
1720.0      4929.4990234    2811.8681641    2767.0263672  
1740.0      4935.4570312    2817.5183105    2767.4350586  
1760.0      4941.4145508    2823.1684570    2767.8437500  
1780.0      4947.3725586    2828.8186035    2768.2524414  
1800.0      4953.3305664    2834.4687500    2768.6613770  
1820.0      4959.2880859    2840.1188965    2769.0700684  
1840.0      4965.2456055    2845.7692871    2769.4787598  
1860.0      4971.2041016    2851.4196777    2769.8876953  
1880.0      4977.1611328    2857.0695801    2770.2963867  
1900.0      4983.1191406    2862.7197266    2770.7050781  
1920.0      4989.0771484    2868.3701172    2771.1137695  
1940.0      4995.0346680    2874.0205078    2771.5224609  
1960.0      5000.9926758    2879.6704102    2771.9311523  
1980.0      5006.9501953    2885.3208008    2772.3400879  
2000.0      5012.9082031    2890.9707031    2772.7487793  
2020.0      5018.9912109    2896.8200684    2773.1577148  
2040.0      5025.0737305    2902.6689453    2773.5664062  
2060.0      5031.1562500    2908.5183105    2773.9750977  
2080.0      5037.2387695    2914.3669434    2774.3837891  
2100.0      5043.3217773    2920.2163086    2774.7924805  
2120.0      5049.4042969    2926.0654297    2775.2011719  
2140.0      5055.4868164    2931.9145508    2775.6101074  
2160.0      5061.5693359    2937.7634277    2776.0187988  
2180.0      5067.6523438    2943.6123047    2776.4274902  
2200.0      5073.7348633    2949.4616699    2776.8364258  
2220.0      5079.8173828    2955.3107910    2777.2451172  
2240.0      5085.9003906    2961.1596680    2777.6538086  
2260.0      5091.9824219    2967.0087891    2778.0625000  
2280.0      5098.0654297    2972.8579102    2778.4711914  
2300.0      5104.1479492    2978.7070312    2778.8798828  
2320.0      5110.2304688    2984.5559082    2779.2888184  
2340.0      5116.3129883    2990.4050293    2779.6975098  
2360.0      5122.3959961    2996.2541504    2780.1062012  
2380.0      5128.4785156    3002.1032715    2780.5151367  
2400.0      5134.5615234    3007.9521484    2780.9238281  
2420.0      5140.6435547    3013.8012695    2781.3325195  
2440.0      5146.7265625    3019.6503906    2781.7412109  
2460.0      5152.8090820    3025.4995117    2782.1499023  
2480.0      5158.8920898    3031.3486328    2782.5588379  
2500.0      5164.9746094    3037.1975098    2782.9675293  
2520.0      5168.8208008    3040.0454102    2783.3762207  
2540.0      5172.6669922    3042.8933105    2783.7849121  
2560.0      5176.5136719    3045.7412109    2784.1938477  
2580.0      5180.3593750    3048.5891113    2784.6025391  
2600.0      5184.2060547    3051.4370117    2785.0112305  
2620.0      5188.0522461    3054.2851562    2785.4199219  
2640.0      5191.8984375    3057.1330566    2785.8286133  
2660.0      5195.7451172    3059.9809570    2786.2375488  
2680.0      5199.5917969    3062.8291016    2786.6462402  
2700.0      5203.4379883    3065.6770020    2787.0549316  
2720.0      5207.2836914    3068.5246582    2787.4636230  
2740.0      5211.1303711    3071.3728027    2787.8725586  
2760.0      5214.9770508    3074.2204590    2788.2812500  
2780.0      5218.8222656    3077.0683594    2788.6899414  
2800.0      5222.6689453    3079.9162598    2789.0986328  
2820.0      5226.5156250    3082.7641602    2789.5073242  
2840.0      5230.3623047    3085.6120605    2789.9162598  
2860.0      5234.2084961    3088.4602051    2790.3249512  
2880.0      5238.0546875    3091.3081055    2790.7336426  
2900.0      5241.9013672    3094.1560059    2791.1425781  
2920.0      5245.7470703    3097.0039062    2791.5512695  
2940.0      5249.5937500    3099.8515625    2791.9599609  
2960.0      5253.4399414    3102.6994629    2792.3686523  
2980.0      5257.2861328    3105.5476074    2792.7773438  
3000.0      5261.1323242    3108.3952637    2793.1862793  
3020.0      5264.6025391    3110.6269531    2793.5949707  
3040.0      5268.0722656    3112.8583984    2794.0036621  
3060.0      5271.5429688    3115.0895996    2794.4125977  
3080.0      5275.0131836    3117.3212891    2794.8212891  
3100.0      5278.4829102    3119.5522461    2795.2299805  
3120.0      5281.9531250    3121.7839355    2795.6386719  
3140.0      5285.4233398    3124.0151367    2796.0473633  
3160.0      5288.8930664    3126.2463379    2796.4562988  
3180.0      5292.3627930    3128.4780273    2796.8649902  
3200.0      5295.8330078    3130.7089844    2797.2736816  
3220.0      5299.3037109    3132.9406738    2797.6826172  
3240.0      5302.7734375    3135.1718750    2798.0913086  
3260.0      5306.2431641    3137.4033203    2798.5000000  
3280.0      5309.7133789    3139.6347656    2798.9086914  
3300.0      5313.1835938    3141.8659668    2799.3173828  
3320.0      5316.6538086    3144.0974121    2799.7263184  
3340.0      5320.1235352    3146.3286133    2800.1350098  
3360.0      5323.5937500    3148.5600586    2800.5437012  
3380.0      5327.0639648    3150.7915039    2800.9523926  
3400.0      5330.5341797    3153.0227051    2801.3613281  
3420.0      5334.0039062    3155.2541504    2801.7700195  
3440.0      5337.4736328    3157.4855957    2802.1787109  
3460.0      5340.9438477    3159.7167969    2802.5874023  
3480.0      5344.4140625    3161.9482422    2802.9960938  
3500.0      5347.8842773    3164.1794434    2803.4050293  
3520.0      5352.7172852    3167.5705566    2803.8137207  
3540.0      5357.5502930    3170.9616699    2804.2224121  
3560.0      5362.3837891    3174.3527832    2804.6311035  
3580.0      5367.2177734    3177.7436523    2805.0400391  
3600.0      5372.0507812    3181.1347656    2805.4487305  
3620.0      5376.8837891    3184.5258789    2805.8574219  
3640.0      5381.7167969    3187.9169922    2806.2661133  
3660.0      5386.5507812    3191.3081055    2806.6748047  
3680.0      5391.3842773    3194.6989746    2807.0837402  
3700.0      5396.2172852    3198.0900879    2807.4924316  
3720.0      5401.0507812    3201.4814453    2807.9011230  
3740.0      5405.8837891    3204.8723145    2808.3098145  
3760.0      5410.7172852    3208.2631836    2808.7187500  
3780.0      5415.5507812    3211.6542969    2809.1274414  
3800.0      5420.3837891    3215.0454102    2809.5361328  
3820.0      5425.2167969    3218.4365234    2809.9448242  
3840.0      5430.0502930    3221.8273926    2810.3535156  
3860.0      5434.8837891    3225.2185059    2810.7624512  
3880.0      5439.7172852    3228.6096191    2811.1711426  
3900.0      5444.5502930    3232.0009766    2811.5798340  
3920.0      5449.3833008    3235.3916016    2811.9887695  
3940.0      5454.2167969    3238.7829590    2812.3974609  
3960.0      5459.0502930    3242.1738281    2812.8061523  
3980.0      5463.8837891    3245.5651855    2813.2148438  
4000.0      5468.7167969    3248.9560547    2813.6235352  
4020.0      5473.5522461    3251.9775391    2814.0324707  
4040.0      5478.3881836    3254.9982910    2814.4411621  
4060.0      5483.2231445    3258.0197754    2814.8498535  
4080.0      5488.0590820    3261.0410156    2815.2587891  
4100.0      5492.8945312    3264.0620117    2815.6674805  
4120.0      5497.7299805    3267.0834961    2816.0761719  
4140.0      5502.5659180    3270.1047363    2816.4848633  
4160.0      5507.4013672    3273.1259766    2816.8935547  
4180.0      5512.2368164    3276.1469727    2817.3024902  
4200.0      5517.0722656    3279.1684570    2817.7111816  
4220.0      5521.9082031    3282.1894531    2818.1198730  
4240.0      5526.7436523    3285.2109375    2818.5288086  
4260.0      5531.5791016    3288.2321777    2818.9375000  
4280.0      5536.4150391    3291.2534180    2819.3461914  
4300.0      5541.2500000    3294.2746582    2819.7548828  
4320.0      5546.0859375    3297.2958984    2820.1635742  
4340.0      5550.9218750    3300.3173828    2820.5725098  
4360.0      5555.7568359    3303.3383789    2820.9812012  
4380.0      5560.5922852    3306.3598633    2821.3898926  
4400.0      5565.4282227    3309.3808594    2821.7985840  
4420.0      5570.2636719    3312.4020996    2822.2075195  
4440.0      5575.0991211    3315.4233398    2822.6162109  
4460.0      5579.9345703    3318.4445801    2823.0249023  
4480.0      5584.7700195    3321.4660645    2823.4335938  
4500.0      5589.6059570    3324.4870605    2823.8422852  
4520.0      5595.4384766    3327.7490234    2824.2509766  
4540.0      5601.2714844    3331.0107422    2824.6599121  
4560.0      5607.1040039    3334.2727051    2825.0686035  
4580.0      5612.9370117    3337.5344238    2825.4772949  
4600.0      5618.7695312    3340.7963867    2825.8862305  
4620.0      5624.6020508    3344.0581055    2826.2949219  
4640.0      5630.4350586    3347.3200684    2826.7036133  
4660.0      5636.2680664    3350.5820312    2827.1123047  
4680.0      5642.1005859    3353.8437500    2827.5209961  
4700.0      5647.9335938    3357.1057129    2827.9299316  
4720.0      5653.7666016    3360.3674316    2828.3386230  
4740.0      5659.5991211    3363.6293945    2828.7473145  
4760.0      5665.4311523    3366.8908691    2829.1560059  
4780.0      5671.2636719    3370.1530762    2829.5649414  
4800.0      5677.0971680    3373.4145508    2829.9736328  
4820.0      5682.9296875    3376.6767578    2830.3823242  
4840.0      5688.7622070    3379.9384766    2830.7910156  
4860.0      5694.5952148    3383.2004395    2831.1997070  
4880.0      5700.4282227    3386.4621582    2831.6086426  
4900.0      5706.2602539    3389.7241211    2832.0173340  
4920.0      5712.0932617    3392.9858398    2832.4262695  
4940.0      5717.9257812    3396.2478027    2832.8349609  
4960.0      5723.7587891    3399.5095215    2833.2436523  
4980.0      5729.5917969    3402.7714844    2833.6523438  
5000.0      5735.4243164    3406.0332031    2834.0610352  
