# CI_LGB -118.14916886 33.97540661
# 
# Depth (m)   Vp (m/s)        Vs(m/s)      Density(kg/m3)
   0.0       404.7470093     160.4799957    1928.9095459  
  20.0      1063.9224854     350.8499756    2032.9934082  
  40.0      1299.9000244     416.6700134    2070.2541504  
  60.0      1310.9124756     482.2000122    2071.9931641  
  80.0      1296.7915039     526.3900146    2069.7634277  
 100.0      1281.9227295     559.8800049    2067.4155273  
 120.0      1273.2905273     584.2700195    2066.0524902  
 140.0      1275.9636230     602.5700073    2066.4746094  
 160.0      1293.2984619     534.8154907    2069.2119141  
 180.0      1327.0336914     552.7442627    2074.5385742  
 200.0      1377.3813477     579.7782593    2082.4885254  
 220.0      1421.7469482     603.8684692    2089.4938965  
 240.0      1463.5032959     626.7658691    2096.0871582  
 260.0      1503.0039062     648.6223755    2102.3242188  
 280.0      1540.5312500     669.5603027    2108.2500000  
 300.0      1576.3135986     681.7999878    2113.8999023  
 320.0      1610.5416260     709.0612793    2119.3044434  
 340.0      1643.3734131     727.7786865    2124.4887695  
 360.0      1674.9432373     745.8901978    2129.4736328  
 380.0      1705.3658447     763.4475708    2134.2773438  
 400.0      1734.7399902     780.4953003    2138.9155273  
 420.0      1763.1519775     797.0724487    2143.4016113  
 440.0      1790.6766357     813.2136841    2147.7478027  
 460.0      1817.3795166     828.9485474    2151.9643555  
 480.0      1843.3210449     844.3051758    2156.0603027  
 500.0      1868.5517578     859.3071899    2160.0444336  
 520.0      1893.1187744     873.9760742    2163.9233398  
 540.0      1917.0642090     888.3319702    2167.7043457  
 560.0      1940.4255371     902.3922729    2171.3930664  
 580.0      1963.2384033     916.1741943    2174.9953613  
 600.0      1985.5333252     929.6915283    2178.5156250  
 620.0      2007.3370361     942.9573975    2181.9584961  
 640.0      2028.6782227     955.9857178    2185.3283691  
 660.0      2049.5793457     968.7869263    2188.6286621  
 680.0      2070.0625000     981.3713989    2191.8627930  
 700.0      2090.1489258     993.7500610    2195.0344238  
 720.0      2395.2729492    1212.5593262    2221.6938477  
 740.0      2406.3056641    1220.8115234    2224.0422363  
 760.0      2417.2111816    1228.9987793    2226.3488770  
 780.0      2427.9953613    1237.1243896    2228.6152344  
 800.0      2438.6628418    1245.1903076    2230.8435059  
 820.0      2449.2185059    1253.1984863    2233.0344238  
 840.0      2459.6672363    1261.1518555    2235.1906738  
 860.0      2470.0129395    1269.0520020    2237.3125000  
 880.0      2480.2600098    1276.9011230    2239.4016113  
 900.0      2490.4116211    1284.7006836    2241.4599609  
 920.0      2500.4711914    1292.4520264    2243.4873047  
 940.0      2510.4426270    1300.1578369    2245.4858398  
 960.0      2520.3291016    1307.8189697    2247.4565430  
 980.0      2530.1328125    1315.4366455    2249.3994141  
1000.0      2539.8566895    1323.0125732    2251.3164062  
1020.0      2550.4582520    1331.7283936    2253.2077637  
1040.0      2560.9858398    1340.4053955    2255.0749512  
1060.0      2571.4418945    1349.0444336    2256.9184570  
1080.0      2581.8273926    1357.6459961    2258.7385254  
1100.0      2592.1450195    1366.2114258    2260.5363770  
1120.0      2602.3969727    1374.7419434    2262.3122559  
1140.0      2612.5854492    1383.2386475    2264.0676270  
1160.0      2622.7121582    1391.7025146    2265.8024902  
1180.0      2632.7788086    1400.1340332    2267.5175781  
1200.0      2642.7871094    1408.5340576    2269.2133789  
1220.0      2652.7377930    1416.9031982    2270.8901367  
1240.0      2662.6337891    1425.2430420    2272.5490723  
1260.0      2672.4763184    1433.5538330    2274.1901855  
1280.0      2682.2663574    1441.8361816    2275.8139648  
1300.0      2692.0051270    1450.0909424    2277.4208984  
1320.0      2701.6943359    1458.3186035    2279.0114746  
1340.0      2711.3344727    1466.5196533    2280.5859375  
1360.0      2720.9287109    1474.6958008    2282.1450195  
1380.0      2730.4758301    1482.8460693    2283.6889648  
1400.0      2739.9780273    1490.9718018    2285.2177734  
1420.0      2749.4362793    1499.0738525    2286.7324219  
1440.0      2758.8513184    1507.1518555    2288.2324219  
1460.0      2768.2253418    1515.2072754    2289.7192383  
1480.0      2777.5576172    1523.2399902    2291.1921387  
1500.0      2786.8503418    1531.2506104    2292.6518555  
1520.0      2795.9577637    1538.2883301    2294.0988770  
1540.0      2805.0256348    1545.3041992    2295.5327148  
1560.0      2814.0571289    1552.2999268    2296.9548340  
1580.0      2823.0520020    1559.2751465    2298.3645020  
1600.0      2832.0102539    1566.2302246    2299.7624512  
1620.0      2840.9340820    1573.1662598    2301.4943848  
1640.0      2849.8225098    1580.0822754    2303.2824707  
1660.0      2858.6777344    1586.9803467    2305.0566406  
1680.0      2867.4997559    1593.8594971    2306.8164062  
1700.0      2876.2895508    1600.7207031    2308.5622559  
1720.0      2885.0476074    1607.5642090    2310.2946777  
1740.0      2893.7739258    1614.3896484    2312.0131836  
1760.0      2902.4704590    1621.1986084    2313.7189941  
1780.0      2911.1364746    1627.9904785    2315.4118652  
1800.0      2919.7729492    1634.7655029    2317.0920410  
1820.0      2928.3808594    1643.3402100    2318.7600098  
1840.0      2936.9604492    1654.6629639    2320.4155273  
1860.0      2945.5114746    1665.9416504    2322.0593262  
1880.0      2954.0361328    1677.1771240    2323.6911621  
1900.0      2962.5334473    1688.3702393    2325.3117676  
1920.0      2971.0041504    1699.5213623    2326.9208984  
1940.0      2979.4492188    1710.6312256    2328.5187988  
1960.0      2987.8684082    1721.7003174    2330.1059570  
1980.0      2996.2626953    1732.7294922    2331.6821289  
2000.0      3004.6325684    1743.7194824    2333.2478027  
2020.0      3014.8156738    1755.7551270    2334.8032227  
2040.0      3024.9748535    1767.7520752    2336.3481445  
2060.0      3035.1103516    1779.7116699    2337.8833008  
2080.0      3048.0576172    1791.6342773    2339.4082031  
2100.0      3064.2119141    1803.5209961    2340.9238281  
2120.0      3080.3049316    1815.3710938    2342.4294434  
2140.0      3096.3383789    1827.1862793    2343.9257812  
2160.0      3112.3132324    1838.9666748    2345.4128418  
2180.0      3128.2297363    1850.7124023    2346.8906250  
2200.0      3144.0895996    1862.4245605    2348.3596191  
2220.0      3159.8928223    1874.1032715    2349.8195801  
2240.0      3175.6408691    1885.7490234    2351.2709961  
2260.0      3191.3342285    1897.3623047    2352.7136230  
2280.0      3206.9743652    1908.9436035    2354.1477051  
2300.0      3222.5612793    1920.4936523    2355.5737305  
2320.0      3238.0957031    1932.0122070    2356.9912109  
2340.0      3253.5788574    1943.4997559    2358.4006348  
2360.0      3269.0109863    1954.9571533    2359.8020020  
2380.0      3284.3937988    1966.3847656    2361.1955566  
2400.0      3299.7270508    1977.7829590    2362.5812988  
2420.0      3315.0117188    1989.1519775    2363.9594727  
2440.0      3330.2485352    2000.4921875    2365.3300781  
2460.0      3345.4377441    2011.8039551    2366.6931152  
2480.0      3360.5800781    2023.0874023    2368.0485840  
2500.0      3375.6770020    2034.3435059    2369.3972168  
2520.0      3384.2744141    2039.2052002    2370.7382812  
2540.0      3392.8269043    2044.0401611    2372.0725098  
2560.0      3401.3349609    2048.8479004    2373.3996582  
2580.0      3409.7993164    2053.6296387    2374.7199707  
2600.0      3418.2207031    2058.3852539    2376.0334473  
2620.0      3426.6000977    2063.1154785    2377.3403320  
2640.0      3434.9367676    2067.8198242    2378.6403809  
2660.0      3443.2319336    2072.4990234    2379.9340820  
2680.0      3451.4870605    2077.1538086    2381.2211914  
2700.0      3459.7009277    2081.7836914    2382.5019531  
2720.0      3467.8747559    2086.3891602    2383.7763672  
2740.0      3476.0109863    2090.9716797    2385.0446777  
2760.0      3484.1054688    2095.5288086    2386.3066406  
2780.0      3492.1623535    2100.0632324    2387.5625000  
2800.0      3500.1816406    2104.5747070    2388.8125000  
2820.0      3508.1630859    2109.0629883    2390.0563965  
2840.0      3516.1071777    2113.5283203    2391.2944336  
2860.0      3524.0148926    2117.9716797    2392.5268555  
2880.0      3531.8862305    2122.3925781    2393.7534180  
2900.0      3539.7214355    2126.7915039    2394.9743652  
2920.0      3547.5219727    2131.1694336    2396.1899414  
2940.0      3555.2868652    2135.5251465    2397.3996582  
2960.0      3563.0168457    2139.8596191    2398.6040039  
2980.0      3570.7128906    2144.1730957    2399.8029785  
3000.0      3578.3752441    2148.4663086    2400.9965820  
3020.0      3587.4599609    2153.4377441    2402.1848145  
3040.0      3596.5114746    2158.3889160    2403.3679199  
3060.0      3605.5305176    2163.3198242    2404.5456543  
3080.0      3614.5166016    2168.2307129    2405.7185059  
3100.0      3623.4714355    2173.1225586    2406.8862305  
3120.0      3632.3937988    2177.9941406    2408.0488281  
3140.0      3641.2851562    2182.8464355    2409.2065430  
3160.0      3650.1455078    2187.6796875    2410.3593750  
3180.0      3658.9750977    2192.4938965    2411.5073242  
3200.0      3667.7739258    2197.2890625    2412.6503906  
3220.0      3676.5427246    2202.0654297    2413.7888184  
3240.0      3685.2822266    2206.8242188    2414.9226074  
3260.0      3693.9921875    2211.5644531    2416.0517578  
3280.0      3702.6723633    2216.2863770    2417.1762695  
3300.0      3711.3237305    2220.9897461    2418.2958984  
3320.0      3719.9472656    2225.6762695    2419.4113770  
3340.0      3728.5417480    2230.3447266    2420.5222168  
3360.0      3737.1083984    2234.9960938    2421.6289062  
3380.0      3745.6472168    2239.6298828    2422.7309570  
3400.0      3754.1586914    2244.2465820    2423.8286133  
3420.0      3762.6428223    2248.8459473    2424.9218750  
3440.0      3771.1000977    2253.4291992    2426.0112305  
3460.0      3779.5310059    2257.9958496    2427.0961914  
3480.0      3787.9348145    2262.5454102    2428.1770020  
3500.0      3796.3129883    2267.0788574    2429.2536621  
3520.0      3795.6425781    2264.7465820    2430.3264160  
3540.0      3794.9458008    2262.3977051    2431.3947754  
3560.0      3794.2238770    2260.0332031    2432.4594727  
3580.0      3793.4772949    2257.6530762    2433.5200195  
3600.0      3792.7050781    2255.2568359    2434.5764160  
3620.0      3793.2529297    2253.8183594    2435.8415527  
3640.0      3809.1328125    2263.4914551    2439.5273438  
3660.0      3824.4965820    2272.8188477    2443.1318359  
3680.0      3839.3747559    2281.8198242    2446.6596680  
3700.0      3853.7949219    2290.5139160    2450.1152344  
3720.0      3867.7768555    2298.9123535    2453.5014648  
3740.0      3881.3466797    2307.0336914    2456.8225098  
3760.0      3894.5253906    2314.8913574    2460.0820312  
3780.0      3907.3295898    2322.4960938    2463.2822266  
3800.0      3919.7807617    2329.8627930    2466.4267578  
3820.0      3931.8918457    2336.9992676    2469.5175781  
3840.0      3943.6791992    2343.9167480    2472.5573730  
3860.0      3955.1564941    2350.6242676    2475.5480957  
3880.0      3966.3374023    2357.1306152    2478.4919434  
3900.0      3977.2338867    2363.4443359    2481.3911133  
3920.0      3987.8591309    2369.5739746    2484.2473145  
3940.0      3998.2199707    2375.5234375    2487.0617676  
3960.0      4008.3305664    2381.3027344    2489.8366699  
3980.0      4018.2001953    2386.9184570    2492.5737305  
4000.0      4027.8315430    2392.3710938    2495.2729492  
4020.0      4039.7048340    2400.3193359    2497.9372559  
4040.0      4051.3618164    2407.5197754    2500.5676270  
4060.0      4062.8110352    2412.4282227    2503.1650391  
4080.0      4074.0539551    2417.2177734    2505.7299805  
4100.0      4085.1030273    2421.8950195    2508.2641602  
4120.0      4095.9628906    2426.4633789    2510.7685547  
4140.0      4106.6401367    2430.9262695    2513.2438965  
4160.0      4117.1401367    2435.2866211    2515.6914062  
4180.0      4127.4672852    2439.5473633    2518.1118164  
4200.0      4137.6284180    2443.7124023    2520.5058594  
4220.0      4147.6303711    2447.7851562    2522.8747559  
4240.0      4157.4711914    2451.7653809    2525.2182617  
4260.0      4167.1611328    2455.6582031    2527.5378418  
4280.0      4176.7016602    2459.4645996    2529.8339844  
4300.0      4186.1010742    2463.1894531    2532.1076660  
4320.0      4195.3608398    2466.8342285    2534.3593750  
4340.0      4204.4799805    2470.3974609    2536.5888672  
4360.0      4213.4692383    2473.8854980    2538.7978516  
4380.0      4222.3286133    2477.2988281    2540.9863281  
4400.0      4231.0610352    2480.6389160    2543.1547852  
4420.0      4239.6718750    2483.9086914    2545.3041992  
4440.0      4248.1621094    2487.1088867    2547.4343262  
4460.0      4256.5356445    2490.2414551    2549.5458984  
4480.0      4264.7944336    2493.3081055    2551.6396484  
4500.0      4272.9423828    2496.3107910    2553.7158203  
4520.0      4286.1279297    2503.1223145    2555.7749023  
4540.0      4299.2070312    2509.8730469    2557.8168945  
4560.0      4312.1821289    2516.5632324    2559.8427734  
4580.0      4325.0546875    2523.1945801    2561.8522949  
4600.0      4337.8286133    2529.7685547    2563.8461914  
4620.0      4350.5058594    2536.2866211    2565.8249512  
4640.0      4363.0869141    2542.7497559    2567.7885742  
4660.0      4375.5756836    2549.1589355    2569.7375488  
4680.0      4387.9726562    2555.5158691    2571.6718750  
4700.0      4400.2802734    2561.8205566    2573.5922852  
4720.0      4412.5004883    2568.0749512    2575.4987793  
4740.0      4424.6342773    2574.2797852    2577.3918457  
4760.0      4436.6845703    2580.4357910    2579.2714844  
4780.0      4448.6513672    2586.5444336    2581.1381836  
4800.0      4460.5405273    2592.6074219    2582.9921875  
4820.0      4472.3466797    2598.6230469    2584.8334961  
4840.0      4484.0756836    2604.5937500    2586.6625977  
4860.0      4495.7309570    2610.5219727    2588.4797363  
4880.0      4507.3066406    2616.4045410    2590.2846680  
4900.0      4518.8110352    2622.2456055    2592.0781250  
4920.0      4530.2431641    2628.0454102    2593.8603516  
4940.0      4541.6040039    2633.8034668    2595.6311035  
4960.0      4552.8955078    2639.5217285    2597.3908691  
4980.0      4564.1176758    2645.2001953    2599.1398926  
5000.0      4575.2729492    2650.8395996    2600.8784180  
