# CI_SDD -117.66173830 33.55258782
# 
# Depth (m)   Vp (m/s)        Vs(m/s)      Density(kg/m3)
   0.0      3396.8862305    1923.9440918    2602.2226562  
  20.0      3396.9111328    1923.9567871    2602.2226562  
  40.0      3396.9362793    1923.9694824    2602.2226562  
  60.0      3396.9614258    1923.9820557    2602.2226562  
  80.0      3396.9863281    1923.9947510    2602.2226562  
 100.0      3397.0114746    1924.0074463    2602.2226562  
 120.0      3397.0366211    1924.0200195    2602.2226562  
 140.0      3397.0615234    1924.0327148    2602.2226562  
 160.0      3397.0866699    1924.0454102    2602.2226562  
 180.0      3397.1118164    1924.0581055    2602.2226562  
 200.0      3397.1367188    1924.0706787    2602.2226562  
 220.0      3397.1618652    1924.0833740    2602.2226562  
 240.0      3397.1870117    1924.0960693    2602.2226562  
 260.0      3397.2119141    1924.1086426    2602.2226562  
 280.0      3397.2370605    1924.1213379    2602.2226562  
 300.0      3397.2622070    1924.1340332    2602.2226562  
 320.0      3397.2871094    1924.1467285    2602.2226562  
 340.0      3397.3122559    1924.1594238    2602.2226562  
 360.0      3397.3374023    1924.1719971    2602.2226562  
 380.0      3397.3623047    1924.1846924    2602.2226562  
 400.0      3397.3874512    1924.1973877    2602.2226562  
 420.0      3397.4125977    1924.2099609    2602.2226562  
 440.0      3397.4375000    1924.2226562    2602.2226562  
 460.0      3397.4626465    1924.2353516    2602.2226562  
 480.0      3397.4877930    1924.2480469    2602.2226562  
 500.0      3397.5126953    1924.2607422    2602.2226562  
 520.0      3404.2963867    1928.9168701    2602.2226562  
 540.0      3411.0798340    1933.5729980    2602.2226562  
 560.0      3417.8632812    1938.2292480    2602.2226562  
 580.0      3424.6467285    1942.8854980    2602.2226562  
 600.0      3431.4301758    1947.5416260    2602.2226562  
 620.0      3438.2138672    1952.1978760    2602.2226562  
 640.0      3444.9973145    1956.8540039    2602.2226562  
 660.0      3451.7807617    1961.5102539    2602.2226562  
 680.0      3458.5644531    1966.1665039    2602.2226562  
 700.0      3465.3476562    1970.8226318    2602.2226562  
 720.0      3472.1313477    1975.4788818    2602.2226562  
 740.0      3478.9147949    1980.1350098    2602.2226562  
 760.0      3485.6982422    1984.7912598    2602.2226562  
 780.0      3492.4819336    1989.4473877    2602.2226562  
 800.0      3499.2651367    1994.1036377    2602.2226562  
 820.0      3506.0488281    1998.7597656    2602.2226562  
 840.0      3512.8322754    2003.4160156    2602.2226562  
 860.0      3519.6157227    2008.0722656    2602.2226562  
 880.0      3526.3994141    2012.7283936    2602.2226562  
 900.0      3533.1826172    2017.3846436    2602.2226562  
 920.0      3539.9663086    2022.0407715    2602.2226562  
 940.0      3546.7497559    2026.6970215    2602.2226562  
 960.0      3553.5332031    2031.3532715    2602.2226562  
 980.0      3560.3168945    2036.0093994    2602.2226562  
1000.0      3567.1611328    2040.7290039    2602.2324219  
1020.0      3579.2324219    2050.5107422    2603.0192871  
1040.0      3591.3046875    2060.2929688    2603.8063965  
1060.0      3603.3762207    2070.0747070    2604.5932617  
1080.0      3615.4482422    2079.8569336    2605.3803711  
1100.0      3627.5200195    2089.6386719    2606.1674805  
1120.0      3639.5917969    2099.4206543    2606.9545898  
1140.0      3651.6638184    2109.2026367    2607.7416992  
1160.0      3663.7358398    2118.9848633    2608.5288086  
1180.0      3675.8076172    2128.7666016    2609.3159180  
1200.0      3687.8791504    2138.5485840    2610.1027832  
1220.0      3699.9506836    2148.3308105    2610.8898926  
1240.0      3712.0224609    2158.1125488    2611.6767578  
1260.0      3724.0942383    2167.8947754    2612.4638672  
1280.0      3736.1662598    2177.6765137    2613.2509766  
1300.0      3748.2377930    2187.4584961    2614.0380859  
1320.0      3760.3095703    2197.2404785    2614.8251953  
1340.0      3772.3815918    2207.0227051    2615.6123047  
1360.0      3784.4533691    2216.8041992    2616.3991699  
1380.0      3796.5249023    2226.5864258    2617.1862793  
1400.0      3808.5966797    2236.3681641    2617.9733887  
1420.0      3820.6687012    2246.1503906    2618.7604980  
1440.0      3832.7409668    2255.9321289    2619.5476074  
1460.0      3844.8125000    2265.7143555    2620.3344727  
1480.0      3856.8842773    2275.4960938    2621.1215820  
1500.0      3868.9558105    2285.2783203    2621.9086914  
1520.0      3878.5144043    2292.3781738    2622.6958008  
1540.0      3888.0737305    2299.4780273    2623.4829102  
1560.0      3897.6323242    2306.5781250    2624.2697754  
1580.0      3907.1914062    2313.6782227    2625.0568848  
1600.0      3916.7502441    2320.7780762    2625.8439941  
1620.0      3926.3088379    2327.8779297    2626.6308594  
1640.0      3935.8676758    2334.9782715    2627.4179688  
1660.0      3945.4267578    2342.0781250    2628.2050781  
1680.0      3954.9853516    2349.1779785    2628.9921875  
1700.0      3964.5441895    2356.2778320    2629.7792969  
1720.0      3974.1032715    2363.3781738    2630.5664062  
1740.0      3983.6621094    2370.4780273    2631.3532715  
1760.0      3993.2207031    2377.5778809    2632.1403809  
1780.0      4002.7797852    2384.6777344    2632.9274902  
1800.0      4012.3383789    2391.7780762    2633.7145996  
1820.0      4021.8972168    2398.8779297    2634.5014648  
1840.0      4031.4558105    2405.9777832    2635.2885742  
1860.0      4041.0151367    2413.0781250    2636.0756836  
1880.0      4050.5737305    2420.1779785    2636.8627930  
1900.0      4060.1323242    2427.2778320    2637.6499023  
1920.0      4069.6911621    2434.3779297    2638.4367676  
1940.0      4079.2507324    2441.4780273    2639.2241211  
1960.0      4088.8095703    2448.5778809    2640.0109863  
1980.0      4098.3681641    2455.6779785    2640.7980957  
2000.0      4107.9267578    2462.7778320    2641.5849609  
2020.0      4117.9663086    2470.1838379    2642.3720703  
2040.0      4128.0043945    2477.5891113    2643.1591797  
2060.0      4138.0439453    2484.9948730    2643.9462891  
2080.0      4148.0830078    2492.4003906    2644.7333984  
2100.0      4158.1210938    2499.8059082    2645.5202637  
2120.0      4168.1606445    2507.2114258    2646.3073730  
2140.0      4178.1992188    2514.6171875    2647.0944824  
2160.0      4188.2382812    2522.0229492    2647.8813477  
2180.0      4198.2768555    2529.4284668    2648.6684570  
2200.0      4208.3164062    2536.8342285    2649.4555664  
2220.0      4218.3554688    2544.2397461    2650.2426758  
2240.0      4228.3945312    2551.6452637    2651.0297852  
2260.0      4238.4331055    2559.0510254    2651.8168945  
2280.0      4248.4721680    2566.4565430    2652.6040039  
2300.0      4258.5107422    2573.8623047    2653.3908691  
2320.0      4268.5498047    2581.2680664    2654.1779785  
2340.0      4278.5888672    2588.6733398    2654.9650879  
2360.0      4288.6279297    2596.0791016    2655.7521973  
2380.0      4298.6669922    2603.4846191    2656.5390625  
2400.0      4308.7055664    2610.8901367    2657.3261719  
2420.0      4318.7441406    2618.2958984    2658.1132812  
2440.0      4328.7836914    2625.7019043    2658.9003906  
2460.0      4338.8222656    2633.1071777    2659.6875000  
2480.0      4348.8618164    2640.5129395    2660.4746094  
2500.0      4358.9003906    2647.9184570    2661.2614746  
2520.0      4366.2412109    2652.2612305    2662.0485840  
2540.0      4373.5830078    2656.6042480    2662.8356934  
2560.0      4380.9238281    2660.9467773    2663.6225586  
2580.0      4388.2646484    2665.2897949    2664.4096680  
2600.0      4395.6059570    2669.6325684    2665.1967773  
2620.0      4402.9467773    2673.9753418    2665.9838867  
2640.0      4410.2880859    2678.3183594    2666.7709961  
2660.0      4417.6289062    2682.6613770    2667.5578613  
2680.0      4424.9702148    2687.0043945    2668.3449707  
2700.0      4432.3110352    2691.3471680    2669.1320801  
2720.0      4439.6518555    2695.6899414    2669.9191895  
2740.0      4446.9931641    2700.0327148    2670.7062988  
2760.0      4454.3344727    2704.3757324    2671.4931641  
2780.0      4461.6752930    2708.7185059    2672.2802734  
2800.0      4469.0161133    2713.0612793    2673.0673828  
2820.0      4476.3574219    2717.4042969    2673.8544922  
2840.0      4483.6982422    2721.7470703    2674.6416016  
2860.0      4491.0400391    2726.0898438    2675.4287109  
2880.0      4498.3808594    2730.4328613    2676.2155762  
2900.0      4505.7216797    2734.7756348    2677.0026855  
2920.0      4513.0625000    2739.1184082    2677.7895508  
2940.0      4520.4042969    2743.4611816    2678.5766602  
2960.0      4527.7451172    2747.8039551    2679.3637695  
2980.0      4535.0864258    2752.1469727    2680.1508789  
3000.0      4542.4272461    2756.4897461    2680.9379883  
3020.0      4549.3710938    2760.2893066    2681.7250977  
3040.0      4556.3144531    2764.0891113    2682.5119629  
3060.0      4563.2578125    2767.8886719    2683.2990723  
3080.0      4570.2026367    2771.6882324    2684.0861816  
3100.0      4577.1459961    2775.4880371    2684.8732910  
3120.0      4584.0898438    2779.2878418    2685.6601562  
3140.0      4591.0332031    2783.0871582    2686.4472656  
3160.0      4597.9765625    2786.8869629    2687.2343750  
3180.0      4604.9204102    2790.6865234    2688.0214844  
3200.0      4611.8637695    2794.4860840    2688.8083496  
3220.0      4618.8085938    2798.2856445    2689.5957031  
3240.0      4625.7519531    2802.0852051    2690.3825684  
3260.0      4632.6953125    2805.8850098    2691.1696777  
3280.0      4639.6391602    2809.6845703    2691.9567871  
3300.0      4646.5825195    2813.4843750    2692.7436523  
3320.0      4653.5263672    2817.2839355    2693.5307617  
3340.0      4660.4702148    2821.0834961    2694.3178711  
3360.0      4667.4140625    2824.8830566    2695.1049805  
3380.0      4674.3579102    2828.6828613    2695.8920898  
3400.0      4681.3012695    2832.4824219    2696.6791992  
3420.0      4688.2446289    2836.2819824    2697.4660645  
3440.0      4695.1884766    2840.0815430    2698.2531738  
3460.0      4702.1323242    2843.8813477    2699.0402832  
3480.0      4709.0761719    2847.6809082    2699.8271484  
3500.0      4716.0200195    2851.4804688    2700.6142578  
3520.0      4726.3232422    2857.6425781    2701.4013672  
3540.0      4736.6259766    2863.8051758    2702.1884766  
3560.0      4746.9291992    2869.9672852    2702.9755859  
3580.0      4757.2329102    2876.1296387    2703.7626953  
3600.0      4767.5361328    2882.2917480    2704.5495605  
3620.0      4777.8393555    2888.4538574    2705.3366699  
3640.0      4788.1425781    2894.6159668    2706.1237793  
3660.0      4798.4458008    2900.7780762    2706.9108887  
3680.0      4808.7495117    2906.9409180    2707.6979980  
3700.0      4819.0522461    2913.1027832    2708.4848633  
3720.0      4829.3559570    2919.2651367    2709.2719727  
3740.0      4839.6586914    2925.4270020    2710.0590820  
3760.0      4849.9624023    2931.5893555    2710.8461914  
3780.0      4860.2656250    2937.7514648    2711.6333008  
3800.0      4870.5688477    2943.9135742    2712.4201660  
3820.0      4880.8720703    2950.0761719    2713.2072754  
3840.0      4891.1752930    2956.2385254    2713.9943848  
3860.0      4901.4785156    2962.4006348    2714.7812500  
3880.0      4911.7822266    2968.5627441    2715.5683594  
3900.0      4922.0854492    2974.7250977    2716.3554688  
3920.0      4932.3881836    2980.8869629    2717.1425781  
3940.0      4942.6914062    2987.0495605    2717.9296875  
3960.0      4952.9946289    2993.2116699    2718.7165527  
3980.0      4963.2988281    2999.3737793    2719.5039062  
4000.0      4973.6020508    3005.5361328    2720.2907715  
4020.0      4986.5483398    3013.0317383    2721.0778809  
4040.0      4999.4951172    3020.5275879    2721.8647461  
4060.0      5012.4414062    3028.0234375    2722.6518555  
4080.0      5025.3881836    3035.5190430    2723.4389648  
4100.0      5038.3354492    3043.0148926    2724.2260742  
4120.0      5051.2822266    3050.5107422    2725.0131836  
4140.0      5064.2290039    3058.0061035    2725.8002930  
4160.0      5077.1757812    3065.5019531    2726.5871582  
4180.0      5090.1220703    3072.9978027    2727.3742676  
4200.0      5103.0693359    3080.4934082    2728.1613770  
4220.0      5116.0156250    3087.9892578    2728.9484863  
4240.0      5128.9624023    3095.4851074    2729.7353516  
4260.0      5141.9091797    3102.9807129    2730.5224609  
4280.0      5154.8559570    3110.4765625    2731.3095703  
4300.0      5167.8027344    3117.9724121    2732.0966797  
4320.0      5180.7500000    3125.4680176    2732.8837891  
4340.0      5193.6962891    3132.9638672    2733.6708984  
4360.0      5206.6430664    3140.4594727    2734.4577637  
4380.0      5219.5893555    3147.9553223    2735.2448730  
4400.0      5232.5366211    3155.4511719    2736.0319824  
4420.0      5245.4833984    3162.9467773    2736.8188477  
4440.0      5258.4301758    3170.4426270    2737.6059570  
4460.0      5271.3764648    3177.9382324    2738.3930664  
4480.0      5284.3237305    3185.4343262    2739.1801758  
4500.0      5297.2700195    3192.9299316    2739.9672852  
4520.0      5316.3173828    3204.3613281    2740.7543945  
4540.0      5335.3642578    3215.7927246    2741.5412598  
4560.0      5354.4116211    3227.2243652    2742.3283691  
4580.0      5373.4584961    3238.6555176    2743.1154785  
4600.0      5392.5053711    3250.0869141    2743.9023438  
4620.0      5411.5527344    3261.5185547    2744.6894531  
4640.0      5430.5996094    3272.9499512    2745.4765625  
4660.0      5449.6469727    3284.3815918    2746.2636719  
4680.0      5468.6938477    3295.8127441    2747.0507812  
4700.0      5487.7407227    3307.2443848    2747.8378906  
4720.0      5506.7880859    3318.6757812    2748.6247559  
4740.0      5525.8354492    3330.1071777    2749.4118652  
4760.0      5544.8828125    3341.5383301    2750.1989746  
4780.0      5563.9296875    3352.9699707    2750.9860840  
4800.0      5582.9765625    3364.4013672    2751.7729492  
4820.0      5602.0234375    3375.8330078    2752.5600586  
4840.0      5621.0703125    3387.2641602    2753.3471680  
4860.0      5640.1176758    3398.6958008    2754.1342773  
4880.0      5659.1655273    3410.1274414    2754.9213867  
4900.0      5678.2119141    3421.5585938    2755.7082520  
4920.0      5697.2592773    3432.9899902    2756.4953613  
4940.0      5716.3061523    3444.4213867    2757.2824707  
4960.0      5735.3535156    3455.8527832    2758.0695801  
4980.0      5754.4003906    3467.2844238    2758.8564453  
5000.0      5773.4472656    3478.7158203    2759.6435547  
