# CE_24399 -118.05810008 34.22356162
# 
# Depth (m)   Vp (m/s)        Vs(m/s)      Density(kg/m3)
   0.0      4774.7958984    2596.8715820    2752.1623535  
  20.0      4759.9555664    2588.3593750    2752.1623535  
  40.0      4745.1152344    2579.8469238    2752.1623535  
  60.0      4730.2749023    2571.3344727    2752.1623535  
  80.0      4715.4345703    2562.8220215    2752.1623535  
 100.0      4700.5947266    2554.3098145    2752.1623535  
 120.0      4685.7543945    2545.7973633    2752.1623535  
 140.0      4670.9140625    2537.2849121    2752.1623535  
 160.0      4656.0737305    2528.7727051    2752.1623535  
 180.0      4641.2338867    2520.2602539    2752.1623535  
 200.0      4626.3935547    2511.7478027    2752.1623535  
 220.0      4611.5532227    2503.2353516    2752.1623535  
 240.0      4596.7128906    2494.7231445    2752.1623535  
 260.0      4581.8730469    2486.2106934    2752.1623535  
 280.0      4567.0327148    2477.6982422    2752.1623535  
 300.0      4552.1923828    2469.1860352    2752.1623535  
 320.0      4537.3520508    2460.6735840    2752.1623535  
 340.0      4522.5117188    2452.1611328    2752.1623535  
 360.0      4507.6718750    2443.6489258    2752.1623535  
 380.0      4492.8315430    2435.1364746    2752.1623535  
 400.0      4477.9912109    2426.6240234    2752.1623535  
 420.0      4463.1513672    2418.1118164    2752.1623535  
 440.0      4448.3110352    2409.5993652    2752.1623535  
 460.0      4433.4707031    2401.0869141    2752.1623535  
 480.0      4418.6303711    2392.5744629    2752.1623535  
 500.0      4403.7900391    2384.0622559    2752.1623535  
 520.0      4410.2695312    2389.0139160    2752.1623535  
 540.0      4416.7485352    2393.9655762    2752.1623535  
 560.0      4423.2275391    2398.9174805    2752.1623535  
 580.0      4429.7065430    2403.8691406    2752.1623535  
 600.0      4436.1855469    2408.8208008    2752.1623535  
 620.0      4442.6645508    2413.7724609    2752.1623535  
 640.0      4449.1435547    2418.7243652    2752.1623535  
 660.0      4455.6230469    2423.6760254    2752.1623535  
 680.0      4462.1020508    2428.6276855    2752.1623535  
 700.0      4468.5810547    2433.5795898    2752.1623535  
 720.0      4475.0600586    2438.5312500    2752.1623535  
 740.0      4481.5390625    2443.4829102    2752.1623535  
 760.0      4488.0180664    2448.4345703    2752.1623535  
 780.0      4494.4970703    2453.3864746    2752.1623535  
 800.0      4500.9765625    2458.3381348    2752.1623535  
 820.0      4507.4555664    2463.2897949    2752.1623535  
 840.0      4513.9345703    2468.2414551    2752.1623535  
 860.0      4520.4135742    2473.1933594    2752.1623535  
 880.0      4526.8925781    2478.1450195    2752.1623535  
 900.0      4533.3715820    2483.0966797    2752.1623535  
 920.0      4539.8505859    2488.0483398    2752.1623535  
 940.0      4546.3300781    2493.0002441    2752.1623535  
 960.0      4552.8090820    2497.9519043    2752.1623535  
 980.0      4559.2880859    2502.9035645    2752.1623535  
1000.0      4565.7988281    2507.9106445    2752.1674805  
1020.0      4577.7026367    2517.5417480    2752.5769043  
1040.0      4589.6079102    2527.1735840    2752.9868164  
1060.0      4601.5117188    2536.8051758    2753.3964844  
1080.0      4613.4169922    2546.4367676    2753.8061523  
1100.0      4625.3217773    2556.0686035    2754.2160645  
1120.0      4637.2260742    2565.7001953    2754.6257324  
1140.0      4649.1303711    2575.3320312    2755.0354004  
1160.0      4661.0351562    2584.9633789    2755.4453125  
1180.0      4672.9394531    2594.5949707    2755.8549805  
1200.0      4684.8437500    2604.2268066    2756.2646484  
1220.0      4696.7490234    2613.8581543    2756.6743164  
1240.0      4708.6533203    2623.4899902    2757.0842285  
1260.0      4720.5576172    2633.1215820    2757.4938965  
1280.0      4732.4624023    2642.7531738    2757.9035645  
1300.0      4744.3666992    2652.3847656    2758.3134766  
1320.0      4756.2709961    2662.0163574    2758.7231445  
1340.0      4768.1762695    2671.6479492    2759.1328125  
1360.0      4780.0805664    2681.2795410    2759.5424805  
1380.0      4791.9843750    2690.9113770    2759.9521484  
1400.0      4803.8886719    2700.5429688    2760.3618164  
1420.0      4815.7934570    2710.1740723    2760.7717285  
1440.0      4827.6977539    2719.8061523    2761.1813965  
1460.0      4839.6025391    2729.4377441    2761.5913086  
1480.0      4851.5073242    2739.0693359    2762.0009766  
1500.0      4863.4121094    2748.7009277    2762.4106445  
1520.0      4869.3754883    2754.3598633    2762.8203125  
1540.0      4875.3403320    2760.0190430    2763.2299805  
1560.0      4881.3041992    2765.6777344    2763.6396484  
1580.0      4887.2685547    2771.3371582    2764.0495605  
1600.0      4893.2329102    2776.9958496    2764.4592285  
1620.0      4899.1972656    2782.6545410    2764.8691406  
1640.0      4905.1611328    2788.3137207    2765.2788086  
1660.0      4911.1259766    2793.9726562    2765.6884766  
1680.0      4917.0893555    2799.6318359    2766.0981445  
1700.0      4923.0541992    2805.2905273    2766.5078125  
1720.0      4929.0185547    2810.9494629    2766.9177246  
1740.0      4934.9824219    2816.6086426    2767.3273926  
1760.0      4940.9467773    2822.2678223    2767.7373047  
1780.0      4946.9106445    2827.9267578    2768.1469727  
1800.0      4952.8754883    2833.5854492    2768.5566406  
1820.0      4958.8388672    2839.2446289    2768.9663086  
1840.0      4964.8037109    2844.9035645    2769.3759766  
1860.0      4970.7675781    2850.5622559    2769.7856445  
1880.0      4976.7314453    2856.2214355    2770.1955566  
1900.0      4982.6962891    2861.8803711    2770.6052246  
1920.0      4988.6601562    2867.5395508    2771.0148926  
1940.0      4994.6240234    2873.1982422    2771.4248047  
1960.0      5000.5888672    2878.8574219    2771.8344727  
1980.0      5006.5527344    2884.5163574    2772.2441406  
2000.0      5012.5170898    2890.1752930    2772.6538086  
2020.0      5018.6064453    2896.0339355    2773.0637207  
2040.0      5024.6953125    2901.8923340    2773.4733887  
2060.0      5030.7841797    2907.7507324    2773.8830566  
2080.0      5036.8730469    2913.6088867    2774.2927246  
2100.0      5042.9619141    2919.4670410    2774.7026367  
2120.0      5049.0512695    2925.3259277    2775.1123047  
2140.0      5055.1406250    2931.1838379    2775.5219727  
2160.0      5061.2294922    2937.0424805    2775.9316406  
2180.0      5067.3188477    2942.9006348    2776.3415527  
2200.0      5073.4082031    2948.7595215    2776.7512207  
2220.0      5079.4970703    2954.6174316    2777.1608887  
2240.0      5085.5859375    2960.4760742    2777.5708008  
2260.0      5091.6748047    2966.3342285    2777.9804688  
2280.0      5097.7641602    2972.1928711    2778.3901367  
2300.0      5103.8530273    2978.0512695    2778.7998047  
2320.0      5109.9418945    2983.9096680    2779.2094727  
2340.0      5116.0312500    2989.7678223    2779.6191406  
2360.0      5122.1210938    2995.6262207    2780.0292969  
2380.0      5128.2094727    3001.4848633    2780.4387207  
2400.0      5134.2988281    3007.3430176    2780.8486328  
2420.0      5140.3876953    3013.2014160    2781.2583008  
2440.0      5146.4765625    3019.0598145    2781.6679688  
2460.0      5152.5654297    3024.9182129    2782.0776367  
2480.0      5158.6542969    3030.7766113    2782.4873047  
2500.0      5164.7436523    3036.6350098    2782.8972168  
2520.0      5168.6005859    3039.4953613    2783.3068848  
2540.0      5172.4565430    3042.3559570    2783.7167969  
2560.0      5176.3125000    3045.2163086    2784.1264648  
2580.0      5180.1684570    3048.0764160    2784.5361328  
2600.0      5184.0244141    3050.9370117    2784.9458008  
2620.0      5187.8808594    3053.7971191    2785.3554688  
2640.0      5191.7373047    3056.6574707    2785.7651367  
2660.0      5195.5937500    3059.5180664    2786.1750488  
2680.0      5199.4497070    3062.3784180    2786.5847168  
2700.0      5203.3056641    3065.2387695    2786.9946289  
2720.0      5207.1625977    3068.0988770    2787.4042969  
2740.0      5211.0185547    3070.9594727    2787.8139648  
2760.0      5214.8745117    3073.8198242    2788.2236328  
2780.0      5218.7304688    3076.6799316    2788.6333008  
2800.0      5222.5869141    3079.5405273    2789.0432129  
2820.0      5226.4433594    3082.4008789    2789.4528809  
2840.0      5230.2993164    3085.2609863    2789.8625488  
2860.0      5234.1557617    3088.1215820    2790.2724609  
2880.0      5238.0117188    3090.9819336    2790.6821289  
2900.0      5241.8681641    3093.8422852    2791.0917969  
2920.0      5245.7246094    3096.7023926    2791.5014648  
2940.0      5249.5805664    3099.5629883    2791.9111328  
2960.0      5253.4365234    3102.4233398    2792.3210449  
2980.0      5257.2929688    3105.2834473    2792.7307129  
3000.0      5261.1494141    3108.1440430    2793.1406250  
3020.0      5264.6293945    3110.3884277    2793.5502930  
3040.0      5268.1093750    3112.6325684    2793.9599609  
3060.0      5271.5893555    3114.8767090    2794.3696289  
3080.0      5275.0693359    3117.1210938    2794.7792969  
3100.0      5278.5488281    3119.3654785    2795.1889648  
3120.0      5282.0288086    3121.6096191    2795.5988770  
3140.0      5285.5097656    3123.8537598    2796.0087891  
3160.0      5288.9897461    3126.0981445    2796.4184570  
3180.0      5292.4697266    3128.3420410    2796.8281250  
3200.0      5295.9497070    3130.5861816    2797.2377930  
3220.0      5299.4296875    3132.8305664    2797.6474609  
3240.0      5302.9091797    3135.0747070    2798.0571289  
3260.0      5306.3896484    3137.3188477    2798.4670410  
3280.0      5309.8701172    3139.5632324    2798.8767090  
3300.0      5313.3500977    3141.8073730    2799.2866211  
3320.0      5316.8300781    3144.0515137    2799.6962891  
3340.0      5320.3095703    3146.2958984    2800.1059570  
3360.0      5323.7895508    3148.5402832    2800.5156250  
3380.0      5327.2700195    3150.7846680    2800.9252930  
3400.0      5330.7500000    3153.0288086    2801.3349609  
3420.0      5334.2304688    3155.2729492    2801.7448730  
3440.0      5337.7099609    3157.5173340    2802.1545410  
3460.0      5341.1899414    3159.7617188    2802.5642090  
3480.0      5344.6699219    3162.0058594    2802.9741211  
3500.0      5348.1499023    3164.2500000    2803.3837891  
3520.0      5352.9916992    3167.6511230    2803.7934570  
3540.0      5357.8339844    3171.0520020    2804.2031250  
3560.0      5362.6752930    3174.4526367    2804.6130371  
3580.0      5367.5170898    3177.8540039    2805.0227051  
3600.0      5372.3583984    3181.2546387    2805.4323730  
3620.0      5377.2001953    3184.6557617    2805.8420410  
3640.0      5382.0419922    3188.0566406    2806.2519531  
3660.0      5386.8837891    3191.4577637    2806.6616211  
3680.0      5391.7255859    3194.8586426    2807.0712891  
3700.0      5396.5673828    3198.2595215    2807.4809570  
3720.0      5401.4086914    3201.6606445    2807.8908691  
3740.0      5406.2500000    3205.0615234    2808.3005371  
3760.0      5411.0917969    3208.4624023    2808.7102051  
3780.0      5415.9335938    3211.8635254    2809.1201172  
3800.0      5420.7758789    3215.2644043    2809.5297852  
3820.0      5425.6171875    3218.6655273    2809.9394531  
3840.0      5430.4589844    3222.0664062    2810.3491211  
3860.0      5435.3007812    3225.4675293    2810.7587891  
3880.0      5440.1425781    3228.8681641    2811.1687012  
3900.0      5444.9838867    3232.2690430    2811.5783691  
3920.0      5449.8256836    3235.6701660    2811.9880371  
3940.0      5454.6674805    3239.0712891    2812.3979492  
3960.0      5459.5092773    3242.4721680    2812.8076172  
3980.0      5464.3505859    3245.8730469    2813.2172852  
4000.0      5469.1923828    3249.2741699    2813.6269531  
4020.0      5474.0356445    3252.3037109    2814.0368652  
4040.0      5478.8789062    3255.3334961    2814.4465332  
4060.0      5483.7211914    3258.3632812    2814.8562012  
4080.0      5488.5644531    3261.3928223    2815.2661133  
4100.0      5493.4072266    3264.4223633    2815.6757812  
4120.0      5498.2500000    3267.4521484    2816.0854492  
4140.0      5503.0937500    3270.4819336    2816.4951172  
4160.0      5507.9365234    3273.5114746    2816.9047852  
4180.0      5512.7792969    3276.5410156    2817.3144531  
4200.0      5517.6225586    3279.5708008    2817.7243652  
4220.0      5522.4653320    3282.6003418    2818.1340332  
4240.0      5527.3081055    3285.6298828    2818.5439453  
4260.0      5532.1508789    3288.6599121    2818.9536133  
4280.0      5536.9941406    3291.6896973    2819.3632812  
4300.0      5541.8369141    3294.7192383    2819.7729492  
4320.0      5546.6801758    3297.7487793    2820.1828613  
4340.0      5551.5229492    3300.7785645    2820.5925293  
4360.0      5556.3662109    3303.8081055    2821.0021973  
4380.0      5561.2094727    3306.8376465    2821.4121094  
4400.0      5566.0517578    3309.8674316    2821.8215332  
4420.0      5570.8950195    3312.8969727    2822.2314453  
4440.0      5575.7382812    3315.9270020    2822.6411133  
4460.0      5580.5805664    3318.9567871    2823.0507812  
4480.0      5585.4238281    3321.9863281    2823.4604492  
4500.0      5590.2666016    3325.0161133    2823.8703613  
4520.0      5596.1040039    3328.2836914    2824.2800293  
4540.0      5601.9418945    3331.5515137    2824.6896973  
4560.0      5607.7792969    3334.8190918    2825.0996094  
4580.0      5613.6176758    3338.0869141    2825.5092773  
4600.0      5619.4550781    3341.3542480    2825.9189453  
4620.0      5625.2924805    3344.6218262    2826.3286133  
4640.0      5631.1298828    3347.8896484    2826.7382812  
4660.0      5636.9677734    3351.1572266    2827.1481934  
4680.0      5642.8051758    3354.4250488    2827.5578613  
4700.0      5648.6425781    3357.6926270    2827.9675293  
4720.0      5654.4804688    3360.9602051    2828.3774414  
4740.0      5660.3178711    3364.2280273    2828.7871094  
4760.0      5666.1562500    3367.4956055    2829.1967773  
4780.0      5671.9936523    3370.7631836    2829.6064453  
4800.0      5677.8310547    3374.0307617    2830.0163574  
4820.0      5683.6689453    3377.2983398    2830.4260254  
4840.0      5689.5063477    3380.5661621    2830.8356934  
4860.0      5695.3437500    3383.8337402    2831.2456055  
4880.0      5701.1811523    3387.1015625    2831.6552734  
4900.0      5707.0185547    3390.3691406    2832.0649414  
4920.0      5712.8559570    3393.6367188    2832.4746094  
4940.0      5718.6943359    3396.9042969    2832.8842773  
4960.0      5724.5317383    3400.1718750    2833.2941895  
4980.0      5730.3691406    3403.4396973    2833.7038574  
5000.0      5736.2070312    3406.7072754    2834.1135254  
